index;adc
0;1516
1;1515
2;1516
3;1515
4;1515
5;1515
6;1515
7;1515
8;1515
9;1515
10;1515
11;1515
12;1515
13;1515
14;1516
15;1516
16;1516
17;1517
18;1517
19;1516
20;1517
21;1517
22;1517
23;1517
24;1517
25;1517
26;1516
27;1516
28;1516
29;1516
30;1515
31;1515
32;1515
33;1514
34;1513
35;1513
36;1512
37;1512
38;1511
39;1510
40;1509
41;1509
42;1508
43;1507
44;1506
45;1506
46;1505
47;1504
48;1504
49;1503
50;1503
51;1503
52;1502
53;1502
54;1502
55;1502
56;1502
57;1502
58;1502
59;1502
60;1502
61;1502
62;1502
63;1503
64;1503
65;1503
66;1503
67;1503
68;1503
69;1503
70;1503
71;1504
72;1503
73;1504
74;1503
75;1503
76;1503
77;1503
78;1503
79;1502
80;1502
81;1501
82;1501
83;1501
84;1500
85;1500
86;1499
87;1498
88;1498
89;1497
90;1497
91;1496
92;1495
93;1494
94;1494
95;1493
96;1493
97;1492
98;1492
99;1491
100;1491
101;1491
102;1491
103;1491
104;1491
105;1491
106;1490
107;1491
108;1491
109;1491
110;1491
111;1491
112;1491
113;1492
114;1492
115;1492
116;1492
117;1493
118;1493
119;1494
120;1494
121;1494
122;1493
123;1493
124;1493
125;1492
126;1492
127;1491
128;1491
129;1490
130;1490
131;1489
132;1489
133;1489
134;1489
135;1488
136;1488
137;1488
138;1487
139;1487
140;1486
141;1486
142;1485
143;1485
144;1484
145;1484
146;1483
147;1483
148;1482
149;1482
150;1482
151;1481
152;1481
153;1481
154;1481
155;1481
156;1481
157;1480
158;1480
159;1480
160;1481
161;1480
162;1480
163;1480
164;1481
165;1481
166;1481
167;1482
168;1482
169;1482
170;1482
171;1483
172;1483
173;1483
174;1483
175;1484
176;1483
177;1483
178;1483
179;1483
180;1483
181;1483
182;1482
183;1482
184;1481
185;1481
186;1481
187;1480
188;1480
189;1479
190;1479
191;1478
192;1477
193;1477
194;1476
195;1475
196;1475
197;1475
198;1474
199;1474
200;1473
201;1473
202;1473
203;1473
204;1473
205;1473
206;1473
207;1473
208;1473
209;1473
210;1473
211;1473
212;1473
213;1474
214;1474
215;1474
216;1475
217;1475
218;1475
219;1476
220;1476
221;1477
222;1477
223;1477
224;1477
225;1477
226;1477
227;1477
228;1477
229;1477
230;1477
231;1476
232;1476
233;1476
234;1476
235;1475
236;1475
237;1475
238;1474
239;1473
240;1473
241;1472
242;1471
243;1470
244;1470
245;1469
246;1468
247;1468
248;1467
249;1467
250;1467
251;1466
252;1466
253;1465
254;1465
255;1465
256;1465
257;1465
258;1465
259;1465
260;1465
261;1466
262;1466
263;1466
264;1466
265;1466
266;1467
267;1467
268;1467
269;1468
270;1468
271;1468
272;1468
273;1469
274;1469
275;1469
276;1469
277;1468
278;1468
279;1467
280;1467
281;1467
282;1466
283;1466
284;1465
285;1465
286;1464
287;1464
288;1463
289;1463
290;1462
291;1461
292;1460
293;1459
294;1459
295;1458
296;1457
297;1457
298;1457
299;1456
300;1456
301;1455
302;1455
303;1454
304;1454
305;1454
306;1454
307;1454
308;1454
309;1454
310;1454
311;1454
312;1455
313;1454
314;1454
315;1455
316;1455
317;1455
318;1456
319;1456
320;1456
321;1456
322;1457
323;1457
324;1457
325;1456
326;1456
327;1456
328;1456
329;1456
330;1455
331;1455
332;1454
333;1454
334;1453
335;1453
336;1453
337;1452
338;1451
339;1451
340;1450
341;1448
342;1448
343;1447
344;1447
345;1445
346;1445
347;1444
348;1444
349;1443
350;1442
351;1442
352;1442
353;1441
354;1441
355;1441
356;1441
357;1440
358;1440
359;1441
360;1441
361;1441
362;1441
363;1441
364;1441
365;1441
366;1441
367;1440
368;1441
369;1441
370;1440
371;1441
372;1441
373;1440
374;1440
375;1440
376;1440
377;1440
378;1439
379;1438
380;1438
381;1437
382;1437
383;1437
384;1436
385;1435
386;1435
387;1435
388;1434
389;1434
390;1433
391;1432
392;1431
393;1430
394;1429
395;1429
396;1428
397;1427
398;1426
399;1425
400;1425
401;1424
402;1423
403;1423
404;1422
405;1422
406;1421
407;1421
408;1420
409;1420
410;1419
411;1419
412;1419
413;1419
414;1419
415;1419
416;1419
417;1420
418;1419
419;1420
420;1420
421;1420
422;1420
423;1421
424;1420
425;1420
426;1420
427;1420
428;1419
429;1419
430;1418
431;1418
432;1417
433;1417
434;1416
435;1415
436;1415
437;1414
438;1413
439;1413
440;1412
441;1411
442;1410
443;1409
444;1408
445;1407
446;1407
447;1405
448;1404
449;1404
450;1403
451;1402
452;1402
453;1401
454;1401
455;1400
456;1400
457;1400
458;1400
459;1399
460;1399
461;1399
462;1399
463;1399
464;1398
465;1398
466;1398
467;1398
468;1399
469;1399
470;1399
471;1399
472;1398
473;1398
474;1398
475;1398
476;1397
477;1396
478;1396
479;1395
480;1395
481;1394
482;1393
483;1393
484;1392
485;1391
486;1390
487;1390
488;1389
489;1388
490;1387
491;1387
492;1386
493;1385
494;1384
495;1383
496;1382
497;1381
498;1381
499;1380
500;1379
501;1379
502;1378
503;1378
504;1378
505;1377
506;1377
507;1377
508;1377
509;1377
510;1377
511;1377
512;1377
513;1377
514;1377
515;1377
516;1378
517;1378
518;1378
519;1378
520;1378
521;1379
522;1379
523;1379
524;1379
525;1379
526;1378
527;1379
528;1378
529;1378
530;1378
531;1377
532;1377
533;1376
534;1376
535;1375
536;1375
537;1374
538;1373
539;1373
540;1372
541;1371
542;1370
543;1370
544;1369
545;1368
546;1367
547;1366
548;1366
549;1365
550;1365
551;1364
552;1364
553;1363
554;1363
555;1363
556;1363
557;1363
558;1362
559;1362
560;1362
561;1362
562;1362
563;1362
564;1362
565;1362
566;1362
567;1362
568;1362
569;1362
570;1362
571;1363
572;1363
573;1362
574;1362
575;1362
576;1362
577;1361
578;1361
579;1360
580;1360
581;1360
582;1359
583;1359
584;1358
585;1357
586;1357
587;1356
588;1355
589;1354
590;1354
591;1353
592;1353
593;1352
594;1352
595;1350
596;1349
597;1349
598;1348
599;1348
600;1347
601;1347
602;1347
603;1346
604;1347
605;1346
606;1346
607;1346
608;1346
609;1346
610;1346
611;1346
612;1346
613;1346
614;1346
615;1346
616;1346
617;1346
618;1346
619;1347
620;1347
621;1347
622;1347
623;1347
624;1347
625;1346
626;1347
627;1346
628;1346
629;1346
630;1345
631;1344
632;1344
633;1343
634;1342
635;1342
636;1341
637;1341
638;1340
639;1339
640;1338
641;1337
642;1337
643;1336
644;1335
645;1334
646;1333
647;1333
648;1333
649;1332
650;1331
651;1331
652;1331
653;1330
654;1330
655;1330
656;1330
657;1330
658;1329
659;1330
660;1329
661;1329
662;1329
663;1329
664;1330
665;1329
666;1329
667;1330
668;1330
669;1330
670;1330
671;1330
672;1331
673;1331
674;1331
675;1331
676;1331
677;1331
678;1330
679;1330
680;1330
681;1329
682;1329
683;1328
684;1328
685;1327
686;1327
687;1326
688;1325
689;1325
690;1324
691;1323
692;1323
693;1322
694;1321
695;1320
696;1320
697;1319
698;1318
699;1318
700;1317
701;1316
702;1316
703;1315
704;1315
705;1315
706;1314
707;1314
708;1314
709;1313
710;1314
711;1313
712;1313
713;1313
714;1313
715;1313
716;1313
717;1313
718;1313
719;1313
720;1313
721;1313
722;1313
723;1313
724;1313
725;1313
726;1312
727;1311
728;1311
729;1310
730;1309
731;1309
732;1308
733;1307
734;1306
735;1305
736;1305
737;1304
738;1304
739;1303
740;1302
741;1302
742;1301
743;1300
744;1300
745;1299
746;1298
747;1297
748;1297
749;1296
750;1295
751;1295
752;1295
753;1294
754;1294
755;1293
756;1293
757;1293
758;1293
759;1292
760;1293
761;1292
762;1292
763;1292
764;1293
765;1292
766;1292
767;1293
768;1293
769;1293
770;1293
771;1293
772;1293
773;1293
774;1293
775;1293
776;1293
777;1293
778;1293
779;1292
780;1292
781;1292
782;1291
783;1290
784;1290
785;1289
786;1288
787;1288
788;1287
789;1286
790;1285
791;1285
792;1283
793;1283
794;1282
795;1281
796;1280
797;1280
798;1279
799;1278
800;1277
801;1277
802;1275
803;1275
804;1275
805;1274
806;1273
807;1274
808;1273
809;1272
810;1272
811;1272
812;1272
813;1272
814;1271
815;1271
816;1271
817;1271
818;1271
819;1271
820;1271
821;1271
822;1271
823;1271
824;1271
825;1272
826;1272
827;1271
828;1271
829;1271
830;1271
831;1270
832;1270
833;1269
834;1269
835;1268
836;1268
837;1267
838;1266
839;1266
840;1265
841;1264
842;1264
843;1264
844;1263
845;1261
846;1261
847;1260
848;1259
849;1258
850;1257
851;1256
852;1256
853;1255
854;1254
855;1254
856;1254
857;1253
858;1253
859;1252
860;1252
861;1252
862;1251
863;1251
864;1251
865;1250
866;1250
867;1250
868;1250
869;1249
870;1249
871;1249
872;1249
873;1249
874;1249
875;1248
876;1248
877;1248
878;1248
879;1247
880;1247
881;1246
882;1246
883;1245
884;1244
885;1243
886;1242
887;1241
888;1240
889;1240
890;1239
891;1238
892;1237
893;1237
894;1235
895;1235
896;1234
897;1232
898;1232
899;1231
900;1230
901;1229
902;1228
903;1227
904;1227
905;1226
906;1225
907;1224
908;1224
909;1224
910;1223
911;1222
912;1222
913;1222
914;1221
915;1221
916;1221
917;1220
918;1220
919;1220
920;1219
921;1219
922;1219
923;1218
924;1218
925;1218
926;1217
927;1217
928;1216
929;1215
930;1214
931;1214
932;1213
933;1212
934;1211
935;1211
936;1209
937;1208
938;1208
939;1207
940;1206
941;1205
942;1204
943;1203
944;1202
945;1201
946;1199
947;1198
948;1197
949;1195
950;1194
951;1194
952;1193
953;1191
954;1190
955;1189
956;1188
957;1187
958;1187
959;1186
960;1185
961;1185
962;1184
963;1183
964;1183
965;1182
966;1181
967;1181
968;1180
969;1180
970;1179
971;1179
972;1179
973;1178
974;1177
975;1177
976;1176
977;1175
978;1175
979;1173
980;1172
981;1172
982;1170
983;1169
984;1169
985;1168
986;1166
987;1166
988;1165
989;1163
990;1162
991;1162
992;1160
993;1159
994;1158
995;1155
996;1154
997;1153
998;1152
999;1150
1000;1148
1001;1147
1002;1145
1003;1144
1004;1143
1005;1142
1006;1140
1007;1140
1008;1139
1009;1138
1010;1137
1011;1136
1012;1135
1013;1134
1014;1134
1015;1132
1016;1132
1017;1131
1018;1130
1019;1129
1020;1129
1021;1128
1022;1127
1023;1126
1024;1126
1025;1125
1026;1124
1027;1123
1028;1122
1029;1121
1030;1120
1031;1119
1032;1117
1033;1116
1034;1116
1035;1113
1036;1112
1037;1111
1038;1109
1039;1107
1040;1106
1041;1104
1042;1102
1043;1101
1044;1100
1045;1097
1046;1096
1047;1094
1048;1091
1049;1090
1050;1088
1051;1086
1052;1084
1053;1083
1054;1080
1055;1079
1056;1078
1057;1077
1058;1074
1059;1073
1060;1072
1061;1070
1062;1069
1063;1068
1064;1066
1065;1065
1066;1064
1067;1063
1068;1061
1069;1060
1070;1059
1071;1057
1072;1057
1073;1056
1074;1054
1075;1054
1076;1052
1077;1051
1078;1050
1079;1049
1080;1048
1081;1046
1082;1045
1083;1044
1084;1042
1085;1041
1086;1040
1087;1038
1088;1036
1089;1035
1090;1034
1091;1032
1092;1030
1093;1029
1094;1027
1095;1026
1096;1024
1097;1022
1098;1021
1099;1019
1100;1018
1101;1016
1102;1015
1103;1014
1104;1011
1105;1010
1106;1009
1107;1007
1108;1007
1109;1005
1110;1004
1111;1003
1112;1002
1113;1001
1114;999
1115;999
1116;998
1117;998
1118;997
1119;996
1120;995
1121;994
1122;994
1123;994
1124;994
1125;992
1126;992
1127;991
1128;991
1129;991
1130;990
1131;989
1132;989
1133;988
1134;987
1135;987
1136;986
1137;985
1138;983
1139;982
1140;982
1141;981
1142;980
1143;979
1144;977
1145;977
1146;976
1147;975
1148;974
1149;973
1150;972
1151;971
1152;970
1153;969
1154;968
1155;967
1156;966
1157;964
1158;963
1159;962
1160;962
1161;961
1162;961
1163;960
1164;958
1165;958
1166;958
1167;957
1168;957
1169;957
1170;956
1171;956
1172;956
1173;956
1174;956
1175;956
1176;956
1177;956
1178;956
1179;956
1180;957
1181;957
1182;958
1183;958
1184;958
1185;958
1186;957
1187;957
1188;956
1189;956
1190;956
1191;954
1192;954
1193;953
1194;952
1195;951
1196;951
1197;950
1198;949
1199;949
1200;947
1201;947
1202;946
1203;946
1204;945
1205;944
1206;943
1207;943
1208;941
1209;941
1210;940
1211;940
1212;938
1213;938
1214;937
1215;937
1216;936
1217;936
1218;934
1219;934
1220;933
1221;933
1222;933
1223;933
1224;932
1225;932
1226;932
1227;932
1228;931
1229;932
1230;932
1231;931
1232;932
1233;931
1234;931
1235;932
1236;932
1237;932
1238;933
1239;933
1240;933
1241;934
1242;936
1243;936
1244;936
1245;937
1246;937
1247;938
1248;938
1249;938
1250;938
1251;938
1252;939
1253;938
1254;938
1255;937
1256;937
1257;937
1258;937
1259;937
1260;937
1261;936
1262;936
1263;936
1264;935
1265;934
1266;934
1267;933
1268;933
1269;932
1270;932
1271;932
1272;931
1273;931
1274;930
1275;931
1276;930
1277;930
1278;930
1279;930
1280;930
1281;931
1282;931
1283;931
1284;932
1285;932
1286;932
1287;933
1288;933
1289;933
1290;934
1291;935
1292;935
1293;935
1294;936
1295;936
1296;937
1297;938
1298;939
1299;939
1300;940
1301;940
1302;940
1303;941
1304;942
1305;941
1306;942
1307;943
1308;943
1309;943
1310;943
1311;944
1312;944
1313;944
1314;945
1315;945
1316;946
1317;946
1318;946
1319;947
1320;947
1321;947
1322;947
1323;947
1324;948
1325;948
1326;948
1327;949
1328;949
1329;949
1330;950
1331;951
1332;951
1333;952
1334;953
1335;954
1336;955
1337;955
1338;956
1339;957
1340;959
1341;959
1342;960
1343;961
1344;962
1345;963
1346;965
1347;966
1348;967
1349;968
1350;969
1351;971
1352;973
1353;974
1354;975
1355;976
1356;977
1357;978
1358;979
1359;981
1360;982
1361;983
1362;983
1363;984
1364;985
1365;987
1366;987
1367;988
1368;989
1369;990
1370;990
1371;992
1372;993
1373;994
1374;995
1375;995
1376;996
1377;997
1378;999
1379;999
1380;1000
1381;1001
1382;1003
1383;1003
1384;1004
1385;1006
1386;1008
1387;1009
1388;1009
1389;1012
1390;1013
1391;1015
1392;1017
1393;1019
1394;1020
1395;1023
1396;1025
1397;1026
1398;1027
1399;1031
1400;1032
1401;1033
1402;1037
1403;1039
1404;1040
1405;1043
1406;1045
1407;1047
1408;1049
1409;1052
1410;1053
1411;1055
1412;1058
1413;1060
1414;1061
1415;1064
1416;1065
1417;1066
1418;1069
1419;1071
1420;1072
1421;1074
1422;1077
1423;1078
1424;1079
1425;1082
1426;1084
1427;1085
1428;1088
1429;1089
1430;1090
1431;1091
1432;1094
1433;1096
1434;1097
1435;1100
1436;1101
1437;1103
1438;1105
1439;1107
1440;1108
1441;1112
1442;1114
1443;1115
1444;1117
1445;1120
1446;1122
1447;1124
1448;1128
1449;1129
1450;1132
1451;1135
1452;1137
1453;1139
1454;1140
1455;1144
1456;1146
1457;1148
1458;1152
1459;1154
1460;1156
1461;1159
1462;1161
1463;1163
1464;1166
1465;1168
1466;1169
1467;1171
1468;1174
1469;1176
1470;1177
1471;1181
1472;1183
1473;1184
1474;1188
1475;1189
1476;1191
1477;1194
1478;1196
1479;1197
1480;1199
1481;1202
1482;1203
1483;1204
1484;1208
1485;1209
1486;1211
1487;1214
1488;1216
1489;1218
1490;1220
1491;1223
1492;1225
1493;1227
1494;1231
1495;1233
1496;1235
1497;1239
1498;1241
1499;1242
1500;1247
1501;1249
1502;1251
1503;1253
1504;1257
1505;1259
1506;1261
1507;1266
1508;1267
1509;1269
1510;1273
1511;1275
1512;1277
1513;1281
1514;1283
1515;1284
1516;1286
1517;1289
1518;1290
1519;1292
1520;1295
1521;1297
1522;1298
1523;1301
1524;1303
1525;1304
1526;1306
1527;1310
1528;1311
1529;1313
1530;1316
1531;1318
1532;1320
1533;1324
1534;1325
1535;1327
1536;1329
1537;1333
1538;1335
1539;1336
1540;1340
1541;1342
1542;1344
1543;1349
1544;1350
1545;1352
1546;1357
1547;1359
1548;1361
1549;1363
1550;1367
1551;1369
1552;1371
1553;1376
1554;1378
1555;1380
1556;1384
1557;1386
1558;1389
1559;1391
1560;1395
1561;1398
1562;1400
1563;1404
1564;1406
1565;1408
1566;1412
1567;1413
1568;1415
1569;1419
1570;1421
1571;1423
1572;1425
1573;1429
1574;1431
1575;1432
1576;1436
1577;1438
1578;1440
1579;1443
1580;1445
1581;1446
1582;1448
1583;1452
1584;1453
1585;1455
1586;1458
1587;1460
1588;1462
1589;1466
1590;1467
1591;1469
1592;1473
1593;1475
1594;1477
1595;1479
1596;1483
1597;1484
1598;1487
1599;1490
1600;1492
1601;1495
1602;1499
1603;1501
1604;1503
1605;1504
1606;1509
1607;1511
1608;1513
1609;1517
1610;1520
1611;1522
1612;1525
1613;1527
1614;1529
1615;1533
1616;1534
1617;1536
1618;1538
1619;1541
1620;1543
1621;1544
1622;1548
1623;1549
1624;1551
1625;1554
1626;1556
1627;1557
1628;1561
1629;1562
1630;1563
1631;1565
1632;1567
1633;1569
1634;1571
1635;1574
1636;1575
1637;1576
1638;1580
1639;1581
1640;1583
1641;1584
1642;1587
1643;1589
1644;1590
1645;1594
1646;1595
1647;1597
1648;1600
1649;1601
1650;1603
1651;1605
1652;1608
1653;1610
1654;1611
1655;1615
1656;1616
1657;1618
1658;1621
1659;1623
1660;1625
1661;1628
1662;1629
1663;1631
1664;1632
1665;1635
1666;1637
1667;1638
1668;1641
1669;1642
1670;1643
1671;1646
1672;1647
1673;1648
1674;1649
1675;1652
1676;1653
1677;1654
1678;1656
1679;1657
1680;1658
1681;1660
1682;1661
1683;1662
1684;1663
1685;1665
1686;1666
1687;1667
1688;1669
1689;1671
1690;1672
1691;1674
1692;1675
1693;1676
1694;1679
1695;1681
1696;1682
1697;1684
1698;1686
1699;1687
1700;1689
1701;1692
1702;1693
1703;1694
1704;1697
1705;1698
1706;1700
1707;1701
1708;1704
1709;1705
1710;1707
1711;1709
1712;1710
1713;1712
1714;1714
1715;1715
1716;1716
1717;1718
1718;1719
1719;1720
1720;1721
1721;1723
1722;1723
1723;1724
1724;1726
1725;1727
1726;1728
1727;1729
1728;1730
1729;1731
1730;1732
1731;1733
1732;1733
1733;1734
1734;1736
1735;1736
1736;1737
1737;1739
1738;1739
1739;1740
1740;1742
1741;1742
1742;1744
1743;1744
1744;1746
1745;1747
1746;1748
1747;1750
1748;1750
1749;1751
1750;1753
1751;1754
1752;1755
1753;1756
1754;1758
1755;1759
1756;1761
1757;1763
1758;1763
1759;1764
1760;1767
1761;1767
1762;1768
1763;1770
1764;1770
1765;1771
1766;1772
1767;1773
1768;1774
1769;1774
1770;1776
1771;1776
1772;1777
1773;1779
1774;1779
1775;1780
1776;1780
1777;1782
1778;1782
1779;1783
1780;1784
1781;1785
1782;1785
1783;1786
1784;1786
1785;1787
1786;1788
1787;1789
1788;1789
1789;1790
1790;1791
1791;1792
1792;1792
1793;1794
1794;1794
1795;1795
1796;1797
1797;1797
1798;1798
1799;1799
1800;1801
1801;1801
1802;1802
1803;1804
1804;1805
1805;1806
1806;1808
1807;1808
1808;1809
1809;1811
1810;1812
1811;1813
1812;1814
1813;1815
1814;1816
1815;1817
1816;1818
1817;1819
1818;1820
1819;1821
1820;1821
1821;1822
1822;1822
1823;1823
1824;1824
1825;1824
1826;1825
1827;1826
1828;1826
1829;1827
1830;1827
1831;1827
1832;1827
1833;1828
1834;1828
1835;1828
1836;1828
1837;1829
1838;1829
1839;1830
1840;1830
1841;1831
1842;1832
1843;1832
1844;1833
1845;1834
1846;1835
1847;1835
1848;1836
1849;1837
1850;1838
1851;1838
1852;1840
1853;1840
1854;1841
1855;1842
1856;1843
1857;1843
1858;1844
1859;1845
1860;1846
1861;1846
1862;1848
1863;1848
1864;1848
1865;1849
1866;1850
1867;1850
1868;1851
1869;1851
1870;1851
1871;1851
1872;1851
1873;1852
1874;1852
1875;1852
1876;1852
1877;1852
1878;1853
1879;1853
1880;1853
1881;1853
1882;1853
1883;1852
1884;1852
1885;1853
1886;1852
1887;1852
1888;1852
1889;1852
1890;1853
1891;1853
1892;1853
1893;1853
1894;1853
1895;1853
1896;1854
1897;1853
1898;1854
1899;1854
1900;1855
1901;1855
1902;1855
1903;1856
1904;1856
1905;1857
1906;1857
1907;1857
1908;1858
1909;1858
1910;1859
1911;1859
1912;1860
1913;1860
1914;1860
1915;1860
1916;1861
1917;1861
1918;1861
1919;1861
1920;1861
1921;1862
1922;1862
1923;1862
1924;1862
1925;1862
1926;1862
1927;1863
1928;1863
1929;1863
1930;1863
1931;1863
1932;1863
1933;1863
1934;1863
1935;1863
1936;1863
1937;1863
1938;1863
1939;1863
1940;1863
1941;1863
1942;1864
1943;1864
1944;1864
1945;1864
1946;1864
1947;1865
1948;1865
1949;1865
1950;1866
1951;1866
1952;1866
1953;1867
1954;1867
1955;1868
1956;1868
1957;1869
1958;1869
1959;1870
1960;1870
1961;1870
1962;1871
1963;1871
1964;1872
1965;1872
1966;1872
1967;1872
1968;1872
1969;1872
1970;1871
1971;1871
1972;1871
1973;1871
1974;1871
1975;1870
1976;1870
1977;1870
1978;1870
1979;1869
1980;1869
1981;1869
1982;1869
1983;1868
1984;1867
1985;1867
1986;1867
1987;1866
1988;1866
1989;1865
1990;1865
1991;1864
1992;1864
1993;1864
1994;1864
1995;1863
1996;1863
1997;1863
1998;1863
1999;1863
2000;1862
2001;1862
2002;1862
2003;1862
2004;1862
2005;1862
2006;1862
2007;1862
2008;1862
2009;1862
2010;1862
2011;1862
2012;1862
2013;1862
2014;1861
2015;1861
2016;1860
2017;1860
2018;1860
2019;1859
2020;1859
2021;1859
2022;1858
2023;1857
2024;1857
2025;1856
2026;1856
2027;1855
2028;1855
2029;1854
2030;1854
2031;1853
2032;1852
2033;1851
2034;1851
2035;1850
2036;1849
2037;1848
2038;1847
2039;1846
2040;1846
2041;1846
2042;1845
2043;1844
2044;1844
2045;1843
2046;1844
2047;1843
2048;1843
2049;1843
2050;1843
2051;1843
2052;1842
2053;1842
2054;1842
2055;1842
2056;1842
2057;1842
2058;1841
2059;1842
2060;1841
2061;1841
2062;1840
2063;1841
2064;1840
2065;1840
2066;1840
2067;1839
2068;1839
2069;1838
2070;1837
2071;1837
2072;1836
2073;1836
2074;1835
2075;1834
2076;1834
2077;1833
2078;1833
2079;1832
2080;1832
2081;1831
2082;1830
2083;1830
2084;1829
2085;1827
2086;1827
2087;1826
2088;1825
2089;1824
2090;1824
2091;1823
2092;1823
2093;1822
2094;1822
2095;1821
2096;1820
2097;1820
2098;1820
2099;1820
2100;1820
2101;1820
2102;1819
2103;1819
2104;1819
2105;1819
2106;1819
2107;1818
2108;1819
2109;1819
2110;1818
2111;1818
2112;1818
2113;1818
2114;1818
2115;1817
2116;1817
2117;1817
2118;1817
2119;1816
2120;1816
2121;1815
2122;1814
2123;1814
2124;1813
2125;1812
2126;1811
2127;1811
2128;1810
2129;1809
2130;1808
2131;1807
2132;1807
2133;1806
2134;1805
2135;1805
2136;1804
2137;1803
2138;1803
2139;1802
2140;1802
2141;1801
2142;1801
2143;1801
2144;1801
2145;1800
2146;1800
2147;1800
2148;1799
2149;1799
2150;1799
2151;1799
2152;1799
2153;1799
2154;1799
2155;1799
2156;1799
2157;1799
2158;1799
2159;1799
2160;1799
2161;1799
2162;1799
2163;1799
2164;1799
2165;1799
2166;1799
2167;1799
2168;1799
2169;1799
2170;1798
2171;1798
2172;1798
2173;1798
2174;1797
2175;1796
2176;1796
2177;1796
2178;1795
2179;1795
2180;1795
2181;1794
2182;1794
2183;1793
2184;1792
2185;1791
2186;1791
2187;1790
2188;1790
2189;1789
2190;1789
2191;1788
2192;1788
2193;1788
2194;1788
2195;1788
2196;1787
2197;1787
2198;1787
2199;1787
2200;1787
2201;1787
2202;1787
2203;1787
2204;1786
2205;1786
2206;1786
2207;1787
2208;1786
2209;1786
2210;1787
2211;1786
2212;1786
2213;1786
2214;1786
2215;1787
2216;1786
2217;1786
2218;1786
2219;1786
2220;1786
2221;1785
2222;1785
2223;1785
2224;1785
2225;1784
2226;1783
2227;1783
2228;1783
2229;1782
2230;1782
2231;1782
2232;1781
2233;1780
2234;1780
2235;1779
2236;1779
2237;1778
2238;1778
2239;1777
2240;1776
2241;1776
2242;1776
2243;1776
2244;1775
2245;1775
2246;1775
2247;1775
2248;1775
2249;1774
2250;1774
2251;1774
2252;1774
2253;1773
2254;1774
2255;1773
2256;1773
2257;1773
2258;1773
2259;1773
2260;1773
2261;1773
2262;1773
2263;1773
2264;1774
2265;1774
2266;1774
2267;1773
2268;1773
2269;1773
2270;1773
2271;1773
2272;1773
2273;1773
2274;1772
2275;1772
2276;1772
2277;1771
2278;1771
2279;1771
2280;1770
2281;1770
2282;1769
2283;1769
2284;1769
2285;1768
2286;1767
2287;1767
2288;1767
2289;1766
2290;1766
2291;1765
2292;1765
2293;1765
2294;1765
2295;1764
2296;1764
2297;1764
2298;1763
2299;1763
2300;1763
2301;1763
2302;1762
2303;1762
2304;1763
2305;1762
2306;1762
2307;1762
2308;1762
2309;1762
2310;1762
2311;1762
2312;1762
2313;1763
2314;1762
2315;1763
2316;1762
2317;1763
2318;1763
2319;1762
2320;1762
2321;1762
2322;1761
2323;1761
2324;1761
2325;1760
2326;1759
2327;1760
2328;1759
2329;1758
2330;1758
2331;1758
2332;1757
2333;1757
2334;1756
2335;1756
2336;1755
2337;1755
2338;1754
2339;1753
2340;1753
2341;1752
2342;1752
2343;1751
2344;1751
2345;1751
2346;1750
2347;1750
2348;1750
2349;1750
2350;1750
2351;1749
2352;1749
2353;1749
2354;1749
2355;1749
2356;1749
2357;1748
2358;1748
2359;1748
2360;1748
2361;1748
2362;1748
2363;1748
2364;1748
2365;1747
2366;1747
2367;1747
2368;1747
2369;1746
2370;1746
2371;1745
2372;1745
2373;1744
2374;1743
2375;1743
2376;1742
2377;1741
2378;1741
2379;1740
2380;1740
2381;1739
2382;1738
2383;1738
2384;1737
2385;1736
2386;1736
2387;1734
2388;1734
2389;1733
2390;1732
2391;1732
2392;1731
2393;1730
2394;1730
2395;1729
2396;1729
2397;1729
2398;1728
2399;1728
2400;1727
2401;1727
2402;1726
2403;1726
2404;1726
2405;1725
2406;1725
2407;1725
2408;1725
2409;1725
2410;1725
2411;1725
2412;1725
2413;1724
2414;1724
2415;1725
2416;1723
2417;1723
2418;1723
2419;1723
2420;1722
2421;1722
2422;1721
2423;1721
2424;1720
2425;1719
2426;1719
2427;1718
2428;1717
2429;1717
2430;1716
2431;1715
2432;1715
2433;1714
2434;1713
2435;1713
2436;1712
2437;1711
2438;1711
2439;1710
2440;1709
2441;1708
2442;1708
2443;1707
2444;1707
2445;1706
2446;1706
2447;1705
2448;1704
2449;1704
2450;1703
2451;1703
2452;1703
2453;1702
2454;1702
2455;1702
2456;1701
2457;1701
2458;1701
2459;1700
2460;1700
2461;1699
2462;1699
2463;1699
2464;1699
2465;1699
2466;1698
2467;1698
2468;1698
2469;1697
2470;1697
2471;1696
2472;1696
2473;1695
2474;1694
2475;1694
2476;1693
2477;1692
2478;1691
2479;1691
2480;1690
2481;1689
2482;1689
2483;1688
2484;1687
2485;1686
2486;1686
2487;1685
2488;1685
2489;1683
2490;1683
2491;1682
2492;1681
2493;1680
2494;1680
2495;1679
2496;1679
2497;1678
2498;1678
2499;1677
2500;1676
2501;1676
2502;1676
2503;1675
2504;1674
2505;1674
2506;1674
2507;1673
2508;1673
2509;1673
2510;1673
2511;1672
2512;1672
2513;1672
2514;1672
2515;1672
2516;1671
2517;1671
2518;1671
2519;1670
2520;1670
2521;1669
2522;1668
2523;1667
2524;1666
2525;1665
2526;1665
2527;1664
2528;1663
2529;1662
2530;1662
2531;1662
2532;1660
2533;1659
2534;1659
2535;1658
2536;1658
2537;1657
2538;1656
2539;1655
2540;1654
2541;1653
2542;1653
2543;1652
2544;1651
2545;1651
2546;1650
2547;1650
2548;1649
2549;1649
2550;1648
2551;1648
2552;1647
2553;1647
2554;1647
2555;1646
2556;1646
2557;1646
2558;1645
2559;1645
2560;1645
2561;1645
2562;1644
2563;1644
2564;1643
2565;1643
2566;1643
2567;1643
2568;1642
2569;1642
2570;1641
2571;1641
2572;1640
2573;1640
2574;1639
2575;1638
2576;1638
2577;1637
2578;1636
2579;1635
2580;1635
2581;1634
2582;1633
2583;1632
2584;1632
2585;1631
2586;1630
2587;1629
2588;1628
2589;1627
2590;1627
2591;1625
2592;1625
2593;1624
2594;1624
2595;1623
2596;1622
2597;1622
2598;1621
2599;1620
2600;1620
2601;1619
2602;1619
2603;1619
2604;1618
2605;1618
2606;1618
2607;1617
2608;1617
2609;1616
2610;1616
2611;1616
2612;1616
2613;1616
2614;1615
2615;1615
2616;1615
2617;1615
2618;1614
2619;1614
2620;1614
2621;1613
2622;1612
2623;1612
2624;1612
2625;1611
2626;1610
2627;1610
2628;1610
2629;1609
2630;1609
2631;1608
2632;1608
2633;1607
2634;1606
2635;1605
2636;1605
2637;1605
2638;1604
2639;1604
2640;1603
2641;1602
2642;1601
2643;1601
2644;1600
2645;1599
2646;1599
2647;1599
2648;1598
2649;1598
2650;1598
2651;1598
2652;1597
2653;1597
2654;1597
2655;1597
2656;1596
2657;1597
2658;1596
2659;1596
2660;1596
2661;1596
2662;1596
2663;1595
2664;1596
2665;1596
2666;1596
2667;1596
2668;1596
2669;1595
2670;1595
2671;1594
2672;1594
2673;1594
2674;1593
2675;1593
2676;1593
2677;1592
2678;1591
2679;1591
2680;1590
2681;1590
2682;1589
2683;1590
2684;1588
2685;1588
2686;1588
2687;1587
2688;1586
2689;1586
2690;1584
2691;1584
2692;1584
2693;1583
2694;1583
2695;1582
2696;1582
2697;1581
2698;1581
2699;1581
2700;1581
2701;1580
2702;1581
2703;1580
2704;1580
2705;1579
2706;1579
2707;1579
2708;1579
2709;1579
2710;1578
2711;1578
2712;1578
2713;1579
2714;1579
2715;1579
2716;1579
2717;1580
2718;1580
2719;1580
2720;1580
2721;1580
2722;1580
2723;1579
2724;1579
2725;1579
2726;1579
2727;1579
2728;1578
2729;1578
2730;1578
2731;1578
2732;1577
2733;1577
2734;1577
2735;1577
2736;1576
2737;1576
2738;1576
2739;1575
2740;1575
2741;1574
2742;1574
2743;1573
2744;1573
2745;1572
2746;1572
2747;1571
2748;1571
2749;1571
2750;1571
2751;1570
2752;1571
2753;1571
2754;1571
2755;1571
2756;1571
2757;1572
2758;1572
2759;1572
2760;1572
2761;1572
2762;1572
2763;1573
2764;1573
2765;1573
2766;1573
2767;1573
2768;1573
2769;1574
2770;1573
2771;1573
2772;1574
2773;1573
2774;1573
2775;1573
2776;1573
2777;1573
2778;1573
2779;1573
2780;1573
2781;1572
2782;1572
2783;1572
2784;1572
2785;1571
2786;1571
2787;1571
2788;1571
2789;1571
2790;1570
2791;1570
2792;1569
2793;1569
2794;1569
2795;1569
2796;1569
2797;1568
2798;1568
2799;1568
2800;1568
2801;1568
2802;1568
2803;1568
2804;1568
2805;1568
2806;1568
2807;1569
2808;1569
2809;1569
2810;1569
2811;1569
2812;1569
2813;1569
2814;1570
2815;1571
2816;1571
2817;1572
2818;1571
2819;1572
2820;1572
2821;1573
2822;1572
2823;1573
2824;1572
2825;1572
2826;1572
2827;1572
2828;1572
2829;1572
2830;1572
2831;1571
2832;1571
2833;1571
2834;1571
2835;1571
2836;1571
2837;1571
2838;1570
2839;1570
2840;1569
2841;1569
2842;1569
2843;1568
2844;1568
2845;1568
2846;1567
2847;1567
2848;1568
2849;1567
2850;1568
2851;1568
2852;1567
2853;1568
2854;1568
2855;1568
2856;1568
2857;1568
2858;1568
2859;1568
2860;1569
2861;1569
2862;1569
2863;1570
2864;1570
2865;1570
2866;1571
2867;1571
2868;1571
2869;1571
2870;1571
2871;1571
2872;1571
2873;1571
2874;1571
2875;1571
2876;1571
2877;1571
2878;1571
2879;1571
2880;1571
2881;1571
2882;1570
2883;1570
2884;1570
2885;1570
2886;1569
2887;1569
2888;1569
2889;1568
2890;1567
2891;1567
2892;1567
2893;1566
2894;1566
2895;1565
2896;1565
2897;1565
2898;1565
2899;1565
2900;1565
2901;1564
2902;1565
2903;1565
2904;1565
2905;1565
2906;1565
2907;1565
2908;1565
2909;1565
2910;1565
2911;1565
2912;1566
2913;1566
2914;1566
2915;1566
2916;1566
2917;1567
2918;1566
2919;1567
2920;1567
2921;1567
2922;1567
2923;1567
2924;1567
2925;1566
2926;1566
2927;1566
2928;1566
2929;1566
2930;1566
2931;1565
2932;1565
2933;1565
2934;1565
2935;1564
2936;1564
2937;1564
2938;1564
2939;1563
2940;1563
2941;1562
2942;1561
2943;1561
2944;1561
2945;1561
2946;1561
2947;1560
2948;1560
2949;1560
2950;1560
2951;1560
2952;1560
2953;1560
2954;1560
2955;1560
2956;1560
2957;1560
2958;1560
2959;1561
2960;1561
2961;1561
2962;1561
2963;1561
2964;1561
2965;1561
2966;1561
2967;1561
2968;1562
2969;1561
2970;1562
2971;1562
2972;1562
2973;1562
2974;1562
2975;1562
2976;1562
2977;1562
2978;1561
2979;1561
2980;1561
2981;1561
2982;1560
2983;1560
2984;1560
2985;1560
2986;1559
2987;1559
2988;1558
2989;1558
2990;1557
2991;1556
2992;1555
2993;1555
2994;1554
2995;1554
2996;1553
2997;1552
2998;1553
2999;1553
3000;1553
3001;1552
3002;1553
3003;1553
3004;1553
3005;1553
3006;1553
3007;1553
3008;1553
3009;1553
3010;1554
3011;1554
3012;1554
3013;1554
3014;1554
3015;1554
3016;1554
3017;1555
3018;1555
3019;1555
3020;1555
3021;1555
3022;1555
3023;1555
3024;1555
3025;1555
3026;1555
3027;1555
3028;1555
3029;1555
3030;1555
3031;1554
3032;1555
3033;1554
3034;1554
3035;1554
3036;1553
3037;1553
3038;1553
3039;1553
3040;1552
3041;1552
3042;1552
3043;1551
3044;1551
3045;1550
3046;1550
3047;1550
3048;1550
3049;1549
3050;1549
3051;1549
3052;1549
3053;1549
3054;1549
3055;1549
3056;1550
3057;1549
3058;1549
3059;1550
3060;1550
3061;1550
3062;1550
3063;1550
3064;1550
3065;1550
3066;1551
3067;1551
3068;1551
3069;1551
3070;1552
3071;1552
3072;1552
3073;1552
3074;1552
3075;1552
3076;1552
3077;1552
3078;1552
3079;1552
3080;1551
3081;1551
3082;1551
3083;1551
3084;1550
3085;1550
3086;1550
3087;1550
3088;1549
3089;1549
3090;1549
3091;1548
3092;1548
3093;1547
3094;1547
3095;1547
3096;1546
3097;1546
3098;1546
3099;1545
3100;1545
3101;1545
3102;1545
3103;1545
3104;1545
3105;1545
3106;1545
3107;1545
3108;1545
3109;1545
3110;1545
3111;1545
3112;1545
3113;1545
3114;1545
3115;1545
3116;1546
3117;1546
3118;1546
3119;1546
3120;1547
3121;1547
3122;1547
3123;1547
3124;1546
3125;1547
3126;1546
3127;1546
3128;1546
3129;1545
3130;1545
3131;1546
3132;1545
3133;1545
3134;1544
3135;1544
3136;1543
3137;1543
3138;1543
3139;1542
3140;1542
3141;1541
3142;1541
3143;1540
3144;1540
3145;1539
3146;1539
3147;1539
3148;1538
3149;1538
3150;1538
3151;1537
3152;1537
3153;1537
3154;1537
3155;1537
3156;1537
3157;1536
3158;1536
3159;1536
3160;1536
3161;1536
3162;1536
3163;1536
3164;1536
3165;1536
3166;1536
3167;1537
3168;1537
3169;1538
3170;1538
3171;1538
3172;1538
3173;1538
3174;1539
3175;1538
3176;1538
3177;1538
3178;1538
3179;1538
3180;1538
3181;1538
3182;1538
3183;1538
3184;1538
3185;1537
3186;1538
3187;1538
3188;1537
3189;1538
3190;1537
3191;1537
3192;1537
3193;1536
3194;1536
3195;1536
3196;1535
3197;1535
3198;1535
3199;1535
3200;1535
3201;1535
3202;1535
3203;1535
3204;1535
3205;1536
3206;1536
3207;1536
3208;1536
3209;1536
3210;1537
3211;1537
3212;1537
3213;1537
3214;1537
3215;1538
3216;1537
3217;1537
3218;1537
3219;1538
3220;1538
3221;1538
3222;1538
3223;1538
3224;1538
3225;1538
3226;1538
3227;1538
3228;1538
3229;1538
3230;1537
3231;1537
3232;1536
3233;1535
3234;1535
3235;1535
3236;1535
3237;1534
3238;1534
3239;1534
3240;1534
3241;1534
3242;1534
3243;1534
3244;1533
3245;1533
3246;1533
3247;1534
3248;1533
3249;1533
3250;1533
3251;1534
3252;1534
3253;1534
3254;1534
3255;1534
3256;1535
3257;1535
3258;1535
3259;1535
3260;1536
3261;1536
3262;1536
3263;1536
3264;1537
3265;1536
3266;1537
3267;1537
3268;1537
3269;1538
3270;1538
3271;1538
3272;1539
3273;1539
3274;1539
3275;1539
3276;1539
3277;1539
3278;1539
3279;1539
3280;1539
3281;1539
3282;1539
3283;1539
3284;1539
3285;1539
3286;1539
3287;1539
3288;1539
3289;1539
3290;1539
3291;1539
3292;1538
3293;1538
3294;1538
3295;1537
3296;1537
3297;1537
3298;1537
3299;1536
3300;1536
3301;1536
3302;1536
3303;1536
3304;1536
3305;1536
3306;1536
3307;1536
3308;1536
3309;1536
3310;1537
3311;1536
3312;1536
3313;1537
3314;1537
3315;1537
3316;1537
3317;1537
3318;1538
3319;1538
3320;1537
3321;1538
3322;1539
3323;1539
3324;1539
3325;1539
3326;1539
3327;1539
3328;1538
3329;1538
3330;1538
3331;1537
3332;1537
3333;1537
3334;1536
3335;1536
3336;1536
3337;1536
3338;1535
3339;1535
3340;1535
3341;1534
3342;1534
3343;1533
3344;1533
3345;1532
3346;1532
3347;1531
3348;1531
3349;1530
3350;1530
3351;1530
3352;1530
3353;1530
3354;1529
3355;1529
3356;1529
3357;1529
3358;1529
3359;1529
3360;1529
3361;1529
3362;1529
3363;1530
3364;1529
3365;1529
3366;1529
3367;1529
3368;1529
3369;1529
3370;1530
3371;1530
3372;1530
3373;1530
3374;1531
3375;1531
3376;1531
3377;1531
3378;1531
3379;1531
3380;1531
3381;1531
3382;1530
3383;1530
3384;1530
3385;1530
3386;1530
3387;1529
3388;1529
3389;1529
3390;1529
3391;1528
3392;1528
3393;1527
3394;1527
3395;1527
3396;1526
3397;1526
3398;1526
3399;1525
3400;1525
3401;1525
3402;1524
3403;1524
3404;1524
3405;1524
3406;1524
3407;1524
3408;1524
3409;1524
3410;1523
3411;1524
3412;1524
3413;1524
3414;1523
3415;1523
3416;1523
3417;1523
3418;1523
3419;1523
3420;1523
3421;1523
3422;1523
3423;1523
3424;1523
3425;1523
3426;1523
3427;1523
3428;1523
3429;1523
3430;1522
3431;1522
3432;1522
3433;1521
3434;1521
3435;1521
3436;1521
3437;1520
3438;1520
3439;1520
3440;1519
3441;1519
3442;1519
3443;1518
3444;1518
3445;1517
3446;1517
3447;1517
3448;1516
3449;1516
3450;1515
3451;1515
3452;1515
3453;1515
3454;1515
3455;1515
3456;1515
3457;1515
3458;1515
3459;1515
3460;1515
3461;1515
3462;1515
3463;1515
3464;1516
3465;1516
3466;1516
3467;1516
3468;1516
3469;1516
3470;1517
3471;1517
3472;1517
3473;1517
3474;1517
3475;1518
3476;1518
3477;1518
3478;1518
3479;1517
3480;1517
3481;1517
3482;1517
3483;1516
3484;1516
3485;1516
3486;1515
3487;1515
3488;1514
3489;1513
3490;1513
3491;1513
3492;1512
3493;1511
3494;1511
3495;1510
3496;1509
3497;1509
3498;1508
3499;1507
3500;1507
3501;1507
3502;1507
3503;1507
3504;1507
3505;1507
3506;1507
3507;1506
3508;1507
3509;1508
3510;1508
3511;1508
3512;1508
3513;1509
3514;1509
3515;1510
3516;1509
3517;1510
3518;1510
3519;1511
3520;1511
3521;1512
3522;1512
3523;1511
3524;1512
3525;1512
3526;1513
3527;1513
3528;1513
3529;1513
3530;1513
3531;1513
3532;1513
3533;1513
3534;1512
3535;1512
3536;1512
3537;1511
3538;1511
3539;1511
3540;1511
3541;1511
3542;1510
3543;1510
3544;1509
3545;1509
3546;1509
3547;1508
3548;1508
3549;1508
3550;1508
3551;1507
3552;1507
3553;1507
3554;1507
3555;1507
3556;1506
3557;1507
3558;1506
3559;1506
3560;1507
3561;1507
3562;1507
3563;1506
3564;1507
3565;1507
3566;1507
3567;1507
3568;1507
3569;1507
3570;1507
3571;1508
3572;1508
3573;1508
3574;1508
3575;1508
3576;1508
3577;1508
3578;1508
3579;1508
3580;1508
3581;1508
3582;1508
3583;1507
3584;1507
3585;1507
3586;1506
3587;1506
3588;1506
3589;1505
3590;1505
3591;1505
3592;1505
3593;1504
3594;1504
3595;1504
3596;1503
3597;1503
3598;1502
3599;1502
3600;1501
3601;1501
3602;1501
3603;1500
3604;1500
3605;1499
3606;1499
3607;1499
3608;1499
3609;1499
3610;1499
3611;1500
3612;1500
3613;1500
3614;1500
3615;1500
3616;1501
3617;1501
3618;1501
3619;1501
3620;1502
3621;1502
3622;1502
3623;1502
3624;1503
3625;1503
3626;1503
3627;1503
3628;1503
3629;1504
3630;1503
3631;1503
3632;1503
3633;1503
3634;1503
3635;1503
3636;1503
3637;1502
3638;1502
3639;1502
3640;1501
3641;1502
3642;1501
3643;1501
3644;1500
3645;1500
3646;1499
3647;1499
3648;1498
3649;1497
3650;1497
3651;1497
3652;1497
3653;1497
3654;1496
3655;1497
3656;1496
3657;1496
3658;1497
3659;1497
3660;1497
3661;1497
3662;1497
3663;1497
3664;1497
3665;1497
3666;1497
3667;1497
3668;1497
3669;1498
3670;1498
3671;1498
3672;1497
3673;1498
3674;1498
3675;1497
3676;1498
3677;1498
3678;1497
3679;1497
3680;1497
3681;1497
3682;1497
3683;1496
3684;1496
3685;1496
3686;1496
3687;1496
3688;1496
3689;1496
3690;1496
3691;1496
3692;1496
3693;1495
3694;1495
3695;1495
3696;1495
3697;1495
3698;1494
3699;1494
3700;1494
3701;1494
3702;1494
3703;1494
3704;1494
3705;1494
3706;1494
3707;1494
3708;1495
3709;1495
3710;1495
3711;1496
3712;1496
3713;1496
3714;1496
3715;1496
3716;1496
3717;1497
3718;1497
3719;1497
3720;1497
3721;1498
3722;1498
3723;1498
3724;1498
3725;1498
3726;1499
3727;1499
3728;1499
3729;1499
3730;1500
3731;1499
3732;1500
3733;1499
3734;1499
3735;1499
3736;1499
3737;1499
3738;1499
3739;1499
3740;1499
3741;1499
3742;1499
3743;1499
3744;1499
3745;1499
3746;1499
3747;1498
3748;1497
3749;1497
3750;1496
3751;1496
3752;1496
3753;1496
3754;1496
3755;1495
3756;1496
3757;1496
3758;1496
3759;1496
3760;1497
3761;1497
3762;1497
3763;1497
3764;1497
3765;1498
3766;1498
3767;1498
3768;1498
3769;1498
3770;1498
3771;1498
3772;1499
3773;1499
3774;1499
3775;1499
3776;1498
3777;1499
3778;1499
3779;1499
3780;1500
3781;1500
3782;1500
3783;1500
3784;1500
3785;1500
3786;1500
3787;1500
3788;1500
3789;1500
3790;1500
3791;1500
3792;1500
3793;1500
3794;1500
3795;1500
3796;1500
3797;1500
3798;1499
3799;1500
3800;1499
3801;1499
3802;1499
3803;1499
3804;1498
3805;1498
3806;1499
3807;1499
3808;1499
3809;1499
3810;1499
3811;1499
3812;1499
3813;1500
3814;1500
3815;1500
3816;1500
3817;1501
3818;1501
3819;1501
3820;1502
3821;1502
3822;1502
3823;1502
3824;1503
3825;1503
3826;1504
3827;1504
3828;1504
3829;1504
3830;1504
3831;1505
3832;1505
3833;1505
3834;1505
3835;1505
3836;1505
3837;1505
3838;1505
3839;1505
3840;1505
3841;1505
3842;1505
3843;1505
3844;1505
3845;1504
3846;1504
3847;1504
3848;1504
3849;1504
3850;1503
3851;1503
3852;1502
3853;1502
3854;1502
3855;1502
3856;1502
3857;1502
3858;1502
3859;1502
3860;1501
3861;1502
3862;1502
3863;1502
3864;1502
3865;1503
3866;1503
3867;1503
3868;1504
3869;1504
3870;1504
3871;1504
3872;1505
3873;1506
3874;1506
3875;1507
3876;1507
3877;1507
3878;1508
3879;1508
3880;1509
3881;1508
3882;1509
3883;1509
3884;1509
3885;1509
3886;1510
3887;1510
3888;1510
3889;1510
3890;1510
3891;1510
3892;1510
3893;1510
3894;1510
3895;1510
3896;1510
3897;1509
3898;1509
3899;1509
3900;1509
3901;1508
3902;1508
3903;1509
3904;1508
3905;1508
3906;1508
3907;1508
3908;1508
3909;1509
3910;1509
3911;1509
3912;1509
3913;1510
3914;1510
3915;1510
3916;1510
3917;1510
3918;1511
3919;1512
3920;1512
3921;1512
3922;1513
3923;1513
3924;1514
3925;1514
3926;1515
3927;1515
3928;1516
3929;1516
3930;1516
3931;1517
3932;1517
3933;1517
3934;1517
3935;1517
3936;1517
3937;1517
3938;1517
3939;1517
3940;1517
3941;1516
3942;1516
3943;1516
3944;1516
3945;1516
3946;1515
3947;1515
3948;1515
3949;1515
3950;1514
3951;1514
3952;1514
3953;1514
3954;1513
3955;1513
3956;1513
3957;1514
3958;1514
3959;1514
3960;1515
3961;1515
3962;1515
3963;1516
3964;1516
3965;1517
3966;1517
3967;1518
3968;1518
3969;1518
3970;1519
3971;1519
3972;1520
3973;1521
3974;1521
3975;1521
3976;1522
3977;1523
3978;1523
3979;1524
3980;1524
3981;1524
3982;1524
3983;1524
3984;1524
3985;1524
3986;1524
3987;1525
3988;1524
3989;1525
3990;1525
3991;1526
3992;1525
3993;1526
3994;1526
3995;1526
3996;1526
3997;1526
3998;1526
3999;1526
4000;1526
4001;1527
4002;1526
4003;1526
4004;1526
4005;1526
4006;1526
4007;1527
4008;1527
4009;1527
4010;1527
4011;1527
4012;1527
4013;1527
4014;1529
4015;1529
4016;1529
4017;1529
4018;1530
4019;1530
4020;1531
4021;1531
4022;1531
4023;1532
4024;1532
4025;1532
4026;1533
4027;1534
4028;1534
4029;1535
4030;1534
4031;1535
4032;1535
4033;1535
4034;1535
4035;1536
4036;1536
4037;1536
4038;1536
4039;1536
4040;1536
4041;1536
4042;1536
4043;1535
4044;1536
4045;1535
4046;1536
4047;1536
4048;1535
4049;1535
4050;1535
4051;1535
4052;1534
4053;1534
4054;1533
4055;1533
4056;1533
4057;1533
4058;1533
4059;1533
4060;1533
4061;1532
4062;1533
4063;1533
4064;1533
4065;1533
4066;1534
4067;1533
4068;1534
4069;1534
4070;1535
4071;1535
4072;1535
4073;1535
4074;1535
4075;1536
4076;1536
4077;1537
4078;1537
4079;1537
4080;1538
4081;1538
4082;1538
4083;1538
4084;1538
4085;1538
4086;1539
4087;1538
4088;1538
4089;1538
4090;1538
4091;1538
4092;1538
4093;1538
4094;1538
4095;1538
4096;1537
4097;1537
4098;1537
4099;1537
4100;1537
4101;1536
4102;1536
4103;1535
4104;1535
4105;1535
4106;1535
4107;1535
4108;1535
4109;1535
4110;1535
4111;1535
4112;1535
4113;1535
4114;1535
4115;1535
4116;1535
4117;1536
4118;1536
4119;1536
4120;1536
4121;1536
4122;1536
4123;1536
4124;1536
4125;1537
4126;1537
4127;1537
4128;1537
4129;1537
4130;1538
4131;1537
4132;1537
4133;1537
4134;1537
4135;1537
4136;1536
4137;1536
4138;1536
4139;1536
4140;1536
4141;1536
4142;1536
4143;1536
4144;1535
4145;1535
4146;1535
4147;1535
4148;1535
4149;1535
4150;1534
4151;1534
4152;1534
4153;1533
4154;1534
4155;1533
4156;1533
4157;1533
4158;1533
4159;1533
4160;1533
4161;1533
4162;1533
4163;1533
4164;1532
4165;1533
4166;1533
4167;1533
4168;1533
4169;1533
4170;1534
4171;1534
4172;1534
4173;1535
4174;1535
4175;1535
4176;1536
4177;1537
4178;1537
4179;1537
4180;1537
4181;1537
4182;1538
4183;1538
4184;1538
4185;1538
4186;1538
4187;1538
4188;1538
4189;1538
4190;1538
4191;1538
4192;1538
4193;1538
4194;1538
4195;1538
4196;1538
4197;1538
4198;1538
4199;1538
4200;1538
4201;1538
4202;1538
4203;1537
4204;1537
4205;1537
4206;1536
4207;1537
4208;1536
4209;1537
4210;1537
4211;1537
4212;1537
4213;1537
4214;1537
4215;1537
4216;1537
4217;1538
4218;1538
4219;1538
4220;1539
4221;1539
4222;1539
4223;1540
4224;1540
4225;1540
4226;1541
4227;1541
4228;1541
4229;1542
4230;1542
4231;1542
4232;1542
4233;1542
4234;1543
4235;1542
4236;1542
4237;1543
4238;1542
4239;1542
4240;1542
4241;1542
4242;1542
4243;1542
4244;1541
4245;1541
4246;1541
4247;1540
4248;1539
4249;1540
4250;1539
4251;1539
4252;1538
4253;1537
4254;1537
4255;1536
4256;1536
4257;1536
4258;1535
4259;1535
4260;1535
4261;1535
4262;1535
4263;1536
4264;1536
4265;1536
4266;1536
4267;1536
4268;1536
4269;1536
4270;1536
4271;1537
4272;1537
4273;1537
4274;1538
4275;1538
4276;1538
4277;1539
4278;1539
4279;1540
4280;1539
4281;1540
4282;1541
4283;1541
4284;1541
4285;1541
4286;1541
4287;1541
4288;1541
4289;1541
4290;1541
4291;1541
4292;1541
4293;1541
4294;1541
4295;1540
4296;1540
4297;1540
4298;1540
4299;1540
4300;1540
4301;1539
4302;1539
4303;1539
4304;1538
4305;1538
4306;1538
4307;1538
4308;1538
4309;1537
4310;1537
4311;1537
4312;1537
4313;1537
4314;1537
4315;1538
4316;1537
4317;1538
4318;1538
4319;1538
4320;1538
4321;1538
4322;1539
4323;1539
4324;1540
4325;1540
4326;1540
4327;1541
4328;1541
4329;1541
4330;1541
4331;1542
4332;1542
4333;1543
4334;1543
4335;1543
4336;1543
4337;1543
4338;1543
4339;1543
4340;1543
4341;1543
4342;1543
4343;1543
4344;1543
4345;1543
4346;1543
4347;1542
4348;1542
4349;1542
4350;1542
4351;1542
4352;1541
4353;1541
4354;1540
4355;1540
4356;1539
4357;1539
4358;1539
4359;1539
4360;1539
4361;1539
4362;1539
4363;1539
4364;1539
4365;1539
4366;1539
4367;1539
4368;1539
4369;1539
4370;1540
4371;1540
4372;1540
4373;1540
4374;1540
4375;1540
4376;1541
4377;1541
4378;1541
4379;1541
4380;1541
4381;1542
4382;1542
4383;1542
4384;1542
4385;1542
4386;1542
4387;1542
4388;1542
4389;1542
4390;1542
4391;1541
4392;1541
4393;1541
4394;1541
4395;1540
4396;1540
4397;1540
4398;1540
4399;1539
4400;1539
4401;1539
4402;1538
4403;1538
4404;1538
4405;1538
4406;1537
4407;1537
4408;1538
4409;1537
4410;1537
4411;1537
4412;1538
4413;1538
4414;1537
4415;1538
4416;1538
4417;1539
4418;1539
4419;1539
4420;1539
4421;1540
4422;1540
4423;1540
4424;1540
4425;1541
4426;1542
4427;1542
4428;1543
4429;1543
4430;1543
4431;1544
4432;1544
4433;1544
4434;1545
4435;1545
4436;1545
4437;1545
4438;1545
4439;1545
4440;1545
4441;1545
4442;1545
4443;1545
4444;1545
4445;1545
4446;1545
4447;1545
4448;1545
4449;1545
4450;1545
4451;1545
4452;1544
4453;1544
4454;1544
4455;1544
4456;1543
4457;1543
4458;1543
4459;1543
4460;1542
4461;1542
4462;1542
4463;1542
4464;1541
4465;1541
4466;1541
4467;1542
4468;1541
4469;1542
4470;1541
4471;1542
4472;1543
4473;1543
4474;1543
4475;1543
4476;1543
4477;1544
4478;1544
4479;1545
4480;1545
4481;1546
4482;1546
4483;1546
4484;1547
4485;1547
4486;1547
4487;1546
4488;1546
4489;1546
4490;1545
4491;1545
4492;1545
4493;1544
4494;1544
4495;1544
4496;1544
4497;1544
4498;1544
4499;1543
4500;1544
4501;1544
4502;1544
4503;1543
4504;1543
4505;1543
4506;1543
4507;1543
4508;1543
4509;1542
4510;1543
4511;1543
4512;1543
4513;1543
4514;1543
4515;1544
4516;1544
4517;1544
4518;1544
4519;1544
4520;1545
4521;1545
4522;1546
4523;1546
4524;1546
4525;1546
4526;1547
4527;1548
4528;1548
4529;1548
4530;1549
4531;1549
4532;1550
4533;1550
4534;1550
4535;1551
4536;1551
4537;1551
4538;1551
4539;1551
4540;1551
4541;1552
4542;1551
4543;1552
4544;1552
4545;1552
4546;1552
4547;1552
4548;1552
4549;1551
4550;1551
4551;1551
4552;1551
4553;1551
4554;1550
4555;1550
4556;1549
4557;1549
4558;1548
4559;1548
4560;1548
4561;1547
4562;1547
4563;1547
4564;1547
4565;1547
4566;1547
4567;1547
4568;1547
4569;1547
4570;1547
4571;1547
4572;1547
4573;1547
4574;1547
4575;1548
4576;1548
4577;1548
4578;1548
4579;1549
4580;1549
4581;1550
4582;1550
4583;1551
4584;1551
4585;1551
4586;1552
4587;1551
4588;1552
4589;1552
4590;1552
4591;1552
4592;1552
4593;1552
4594;1552
4595;1552
4596;1552
4597;1552
4598;1552
4599;1551
4600;1552
4601;1551
4602;1551
4603;1551
4604;1551
4605;1550
4606;1550
4607;1550
4608;1550
4609;1549
4610;1549
4611;1549
4612;1549
4613;1549
4614;1549
4615;1549
4616;1549
4617;1549
4618;1549
4619;1549
4620;1549
4621;1549
4622;1549
4623;1549
4624;1549
4625;1549
4626;1549
4627;1549
4628;1549
4629;1549
4630;1549
4631;1550
4632;1550
4633;1550
4634;1550
4635;1550
4636;1550
4637;1550
4638;1550
4639;1550
4640;1549
4641;1550
4642;1549
4643;1549
4644;1549
4645;1549
4646;1549
4647;1549
4648;1548
4649;1549
4650;1548
4651;1548
4652;1548
4653;1548
4654;1548
4655;1547
4656;1547
4657;1547
4658;1546
4659;1546
4660;1546
4661;1546
4662;1546
4663;1546
4664;1546
4665;1546
4666;1547
4667;1547
4668;1547
4669;1547
4670;1547
4671;1548
4672;1548
4673;1548
4674;1548
4675;1548
4676;1548
4677;1547
4678;1548
4679;1547
4680;1547
4681;1547
4682;1546
4683;1546
4684;1546
4685;1545
4686;1545
4687;1545
4688;1545
4689;1545
4690;1545
4691;1544
4692;1544
4693;1544
4694;1544
4695;1544
4696;1544
4697;1544
4698;1544
4699;1544
4700;1543
4701;1543
4702;1543
4703;1543
4704;1543
4705;1543
4706;1542
4707;1542
4708;1542
4709;1542
4710;1542
4711;1542
4712;1542
4713;1542
4714;1542
4715;1542
4716;1543
4717;1543
4718;1543
4719;1543
4720;1543
4721;1543
4722;1543
4723;1543
4724;1543
4725;1544
4726;1544
4727;1544
4728;1544
4729;1544
4730;1544
4731;1545
4732;1544
4733;1544
4734;1544
4735;1544
4736;1543
4737;1543
4738;1542
4739;1541
4740;1541
4741;1540
4742;1540
4743;1540
4744;1540
4745;1539
4746;1539
4747;1538
4748;1538
4749;1538
4750;1538
4751;1537
4752;1537
4753;1536
4754;1536
4755;1535
4756;1535
4757;1535
4758;1535
4759;1535
4760;1535
4761;1535
4762;1535
4763;1535
4764;1535
4765;1536
4766;1536
4767;1536
4768;1537
4769;1537
4770;1537
4771;1538
4772;1538
4773;1538
4774;1538
4775;1539
4776;1539
4777;1539
4778;1540
4779;1540
4780;1540
4781;1541
4782;1540
4783;1541
4784;1541
4785;1541
4786;1541
4787;1540
4788;1540
4789;1540
4790;1539
4791;1539
4792;1538
4793;1538
4794;1538
4795;1537
4796;1537
4797;1536
4798;1536
4799;1536
4800;1535
4801;1535
4802;1534
4803;1534
4804;1534
4805;1534
4806;1534
4807;1534
4808;1533
4809;1533
4810;1533
4811;1534
4812;1534
4813;1534
4814;1534
4815;1534
4816;1534
4817;1535
4818;1535
4819;1535
4820;1535
4821;1535
4822;1536
4823;1536
4824;1536
4825;1536
4826;1537
4827;1537
4828;1537
4829;1537
4830;1538
4831;1538
4832;1538
4833;1538
4834;1537
4835;1537
4836;1537
4837;1537
4838;1536
4839;1536
4840;1535
4841;1535
4842;1535
4843;1534
4844;1533
4845;1533
4846;1533
4847;1532
4848;1532
4849;1531
4850;1531
4851;1530
4852;1530
4853;1530
4854;1529
4855;1529
4856;1529
4857;1528
4858;1528
4859;1528
4860;1528
4861;1527
4862;1528
4863;1528
4864;1527
4865;1528
4866;1528
4867;1528
4868;1529
4869;1528
4870;1529
4871;1528
4872;1528
4873;1529
4874;1529
4875;1529
4876;1528
4877;1528
4878;1528
4879;1527
4880;1527
4881;1527
4882;1528
4883;1527
4884;1527
4885;1527
4886;1526
4887;1526
4888;1526
4889;1525
4890;1525
4891;1525
4892;1524
4893;1523
4894;1523
4895;1523
4896;1522
4897;1522
4898;1521
4899;1520
4900;1520
4901;1520
4902;1520
4903;1519
4904;1519
4905;1518
4906;1518
4907;1518
4908;1518
4909;1517
4910;1517
4911;1517
4912;1517
4913;1517
4914;1517
4915;1518
4916;1518
4917;1518
4918;1518
4919;1518
4920;1518
4921;1518
4922;1518
4923;1518
4924;1518
4925;1519
4926;1519
4927;1519
4928;1519
4929;1519
4930;1519
4931;1519
4932;1519
4933;1519
4934;1519
4935;1518
4936;1518
4937;1517
4938;1517
4939;1516
4940;1515
4941;1515
4942;1514
4943;1514
4944;1513
4945;1512
4946;1512
4947;1511
4948;1510
4949;1510
4950;1510
4951;1509
4952;1508
4953;1508
4954;1508
4955;1507
4956;1507
4957;1507
4958;1506
4959;1505
4960;1506
4961;1506
4962;1506
4963;1506
4964;1506
4965;1506
4966;1506
4967;1506
4968;1506
4969;1506
4970;1506
4971;1506
4972;1505
4973;1505
4974;1505
4975;1504
4976;1504
4977;1504
4978;1504
4979;1504
4980;1503
4981;1503
4982;1503
4983;1503
4984;1503
4985;1502
4986;1503
4987;1503
4988;1502
4989;1501
4990;1501
4991;1501
4992;1500
4993;1500
4994;1499
4995;1499
4996;1499
4997;1498
4998;1498
4999;1497
5000;1497
5001;1497
5002;1496
5003;1496
5004;1496
5005;1496
5006;1495
5007;1494
5008;1494
5009;1494
5010;1494
5011;1493
5012;1494
5013;1494
5014;1493
5015;1494
5016;1494
5017;1494
5018;1494
5019;1494
5020;1494
5021;1495
5022;1495
5023;1495
5024;1495
5025;1495
5026;1495
5027;1496
5028;1495
5029;1496
5030;1496
5031;1496
5032;1496
5033;1496
5034;1495
5035;1495
5036;1495
5037;1494
5038;1494
5039;1493
5040;1492
5041;1491
5042;1491
5043;1489
5044;1489
5045;1488
5046;1487
5047;1485
5048;1484
5049;1483
5050;1480
5051;1480
5052;1479
5053;1478
5054;1478
5055;1478
5056;1477
5057;1477
5058;1477
5059;1476
5060;1477
5061;1477
5062;1477
5063;1478
5064;1478
5065;1478
5066;1478
5067;1478
5068;1479
5069;1479
5070;1479
5071;1479
5072;1480
5073;1479
5074;1480
5075;1480
5076;1480
5077;1480
5078;1480
5079;1480
5080;1480
5081;1480
5082;1480
5083;1481
5084;1480
5085;1479
5086;1479
5087;1479
5088;1479
5089;1478
5090;1477
5091;1477
5092;1476
5093;1474
5094;1473
5095;1472
5096;1470
5097;1469
5098;1468
5099;1466
5100;1465
5101;1465
5102;1464
5103;1463
5104;1463
5105;1462
5106;1462
5107;1461
5108;1462
5109;1461
5110;1461
5111;1461
5112;1461
5113;1461
5114;1461
5115;1462
5116;1462
5117;1462
5118;1462
5119;1463
5120;1463
5121;1463
5122;1464
5123;1464
5124;1464
5125;1465
5126;1465
5127;1465
5128;1466
5129;1466
5130;1466
5131;1466
5132;1467
5133;1467
5134;1467
5135;1467
5136;1467
5137;1466
5138;1466
5139;1465
5140;1465
5141;1464
5142;1463
5143;1463
5144;1462
5145;1461
5146;1460
5147;1460
5148;1459
5149;1458
5150;1458
5151;1457
5152;1456
5153;1455
5154;1455
5155;1454
5156;1453
5157;1453
5158;1452
5159;1452
5160;1451
5161;1451
5162;1451
5163;1451
5164;1450
5165;1451
5166;1451
5167;1451
5168;1451
5169;1451
5170;1451
5171;1451
5172;1451
5173;1451
5174;1451
5175;1451
5176;1451
5177;1451
5178;1452
5179;1452
5180;1452
5181;1453
5182;1452
5183;1453
5184;1452
5185;1452
5186;1452
5187;1452
5188;1451
5189;1451
5190;1450
5191;1450
5192;1449
5193;1449
5194;1448
5195;1447
5196;1447
5197;1446
5198;1446
5199;1445
5200;1445
5201;1444
5202;1444
5203;1444
5204;1443
5205;1443
5206;1442
5207;1442
5208;1442
5209;1442
5210;1442
5211;1441
5212;1442
5213;1441
5214;1442
5215;1441
5216;1441
5217;1442
5218;1442
5219;1442
5220;1442
5221;1443
5222;1443
5223;1443
5224;1442
5225;1442
5226;1442
5227;1441
5228;1441
5229;1441
5230;1440
5231;1439
5232;1439
5233;1438
5234;1437
5235;1437
5236;1436
5237;1435
5238;1435
5239;1434
5240;1433
5241;1432
5242;1432
5243;1431
5244;1430
5245;1429
5246;1429
5247;1427
5248;1426
5249;1426
5250;1425
5251;1424
5252;1423
5253;1423
5254;1421
5255;1420
5256;1420
5257;1418
5258;1418
5259;1417
5260;1416
5261;1415
5262;1415
5263;1414
5264;1414
5265;1414
5266;1414
5267;1414
5268;1414
5269;1414
5270;1414
5271;1414
5272;1414
5273;1414
5274;1415
5275;1415
5276;1415
5277;1415
5278;1415
5279;1415
5280;1416
5281;1416
5282;1416
5283;1416
5284;1416
5285;1415
5286;1415
5287;1415
5288;1415
5289;1414
5290;1413
5291;1413
5292;1412
5293;1410
5294;1410
5295;1410
5296;1408
5297;1407
5298;1407
5299;1406
5300;1405
5301;1404
5302;1404
5303;1402
5304;1401
5305;1400
5306;1397
5307;1396
5308;1395
5309;1393
5310;1393
5311;1392
5312;1391
5313;1391
5314;1391
5315;1391
5316;1391
5317;1391
5318;1392
5319;1393
5320;1393
5321;1393
5322;1394
5323;1394
5324;1395
5325;1395
5326;1396
5327;1396
5328;1396
5329;1396
5330;1396
5331;1397
5332;1396
5333;1396
5334;1396
5335;1396
5336;1396
5337;1395
5338;1394
5339;1394
5340;1393
5341;1393
5342;1391
5343;1391
5344;1391
5345;1390
5346;1389
5347;1388
5348;1387
5349;1386
5350;1384
5351;1383
5352;1381
5353;1381
5354;1380
5355;1378
5356;1377
5357;1376
5358;1375
5359;1374
5360;1373
5361;1372
5362;1371
5363;1371
5364;1371
5365;1371
5366;1371
5367;1371
5368;1371
5369;1371
5370;1372
5371;1371
5372;1372
5373;1371
5374;1371
5375;1372
5376;1371
5377;1371
5378;1370
5379;1370
5380;1369
5381;1368
5382;1367
5383;1366
5384;1365
5385;1363
5386;1362
5387;1361
5388;1360
5389;1359
5390;1359
5391;1356
5392;1355
5393;1354
5394;1353
5395;1352
5396;1351
5397;1351
5398;1349
5399;1349
5400;1348
5401;1347
5402;1347
5403;1347
5404;1346
5405;1346
5406;1346
5407;1345
5408;1346
5409;1345
5410;1345
5411;1345
5412;1345
5413;1346
5414;1346
5415;1346
5416;1347
5417;1347
5418;1348
5419;1349
5420;1349
5421;1350
5422;1351
5423;1351
5424;1351
5425;1352
5426;1352
5427;1353
5428;1353
5429;1353
5430;1353
5431;1353
5432;1353
5433;1353
5434;1353
5435;1353
5436;1353
5437;1352
5438;1352
5439;1352
5440;1351
5441;1351
5442;1350
5443;1349
5444;1348
5445;1348
5446;1347
5447;1347
5448;1346
5449;1346
5450;1346
5451;1345
5452;1345
5453;1345
5454;1344
5455;1344
5456;1344
5457;1344
5458;1343
5459;1344
5460;1343
5461;1343
5462;1344
5463;1344
5464;1344
5465;1345
5466;1345
5467;1346
5468;1346
5469;1347
5470;1348
5471;1349
5472;1349
5473;1350
5474;1351
5475;1352
5476;1353
5477;1354
5478;1354
5479;1355
5480;1356
5481;1357
5482;1357
5483;1358
5484;1358
5485;1359
5486;1359
5487;1360
5488;1360
5489;1361
5490;1361
5491;1361
5492;1361
5493;1361
5494;1362
5495;1361
5496;1362
5497;1362
5498;1362
5499;1362
5500;1362
5501;1362
5502;1363
5503;1363
5504;1363
5505;1363
5506;1363
5507;1363
5508;1364
5509;1364
5510;1365
5511;1364
5512;1365
5513;1366
5514;1366
5515;1367
5516;1367
5517;1368
5518;1368
5519;1368
5520;1368
5521;1367
5522;1367
5523;1363
5524;1362
5525;1361
5526;1358
5527;1357
5528;1357
5529;1356
5530;1354
5531;1354
5532;1353
5533;1353
5534;1352
5535;1352
5536;1352
5537;1351
5538;1351
5539;1350
5540;1350
5541;1350
5542;1350
5543;1351
5544;1352
5545;1353
5546;1355
5547;1356
5548;1357
5549;1361
5550;1362
5551;1364
5552;1365
5553;1369
5554;1371
5555;1372
5556;1375
5557;1376
5558;1376
5559;1377
5560;1378
5561;1379
5562;1382
5563;1384
5564;1385
5565;1387
5566;1391
5567;1393
5568;1395
5569;1399
5570;1402
5571;1404
5572;1409
5573;1411
5574;1413
5575;1415
5576;1419
5577;1422
5578;1423
5579;1427
5580;1429
5581;1431
5582;1434
5583;1434
5584;1435
5585;1436
5586;1436
5587;1437
5588;1437
5589;1438
5590;1439
5591;1439
5592;1441
5593;1442
5594;1443
5595;1445
5596;1445
5597;1447
5598;1448
5599;1450
5600;1451
5601;1452
5602;1452
5603;1453
5604;1453
5605;1454
5606;1454
5607;1454
5608;1455
5609;1457
5610;1458
5611;1458
5612;1457
5613;1458
5614;1459
5615;1462
5616;1464
5617;1465
5618;1468
5619;1468
5620;1469
5621;1470
5622;1472
5623;1473
5624;1474
5625;1478
5626;1478
5627;1480
5628;1481
5629;1480
5630;1480
5631;1480
5632;1480
5633;1481
5634;1481
5635;1482
5636;1482
5637;1483
5638;1484
5639;1485
5640;1485
5641;1485
5642;1484
5643;1484
5644;1483
5645;1482
5646;1481
5647;1480
5648;1476
5649;1475
5650;1473
5651;1470
5652;1468
5653;1467
5654;1463
5655;1461
5656;1456
5657;1453
5658;1446
5659;1443
5660;1440
5661;1436
5662;1435
5663;1434
5664;1433
5665;1432
5666;1431
5667;1429
5668;1426
5669;1423
5670;1420
5671;1415
5672;1413
5673;1412
5674;1409
5675;1407
5676;1407
5677;1409
5678;1411
5679;1413
5680;1417
5681;1424
5682;1429
5683;1434
5684;1444
5685;1446
5686;1448
5687;1454
5688;1457
5689;1458
5690;1461
5691;1462
5692;1464
5693;1466
5694;1472
5695;1474
5696;1477
5697;1484
5698;1487
5699;1491
5700;1497
5701;1500
5702;1502
5703;1505
5704;1504
5705;1504
5706;1505
5707;1502
5708;1499
5709;1495
5710;1483
5711;1478
5712;1474
5713;1467
5714;1466
5715;1466
5716;1466
5717;1472
5718;1476
5719;1480
5720;1491
5721;1497
5722;1503
5723;1514
5724;1519
5725;1524
5726;1528
5727;1536
5728;1539
5729;1540
5730;1542
5731;1543
5732;1543
5733;1544
5734;1545
5735;1546
5736;1549
5737;1550
5738;1550
5739;1551
5740;1554
5741;1555
5742;1557
5743;1561
5744;1564
5745;1567
5746;1573
5747;1575
5748;1578
5749;1584
5750;1587
5751;1589
5752;1592
5753;1597
5754;1599
5755;1601
5756;1604
5757;1606
5758;1607
5759;1609
5760;1610
5761;1611
5762;1612
5763;1612
5764;1612
5765;1612
5766;1609
5767;1607
5768;1605
5769;1602
5770;1600
5771;1599
5772;1599
5773;1598
5774;1598
5775;1598
5776;1594
5777;1592
5778;1589
5779;1585
5780;1583
5781;1582
5782;1580
5783;1580
5784;1580
5785;1580
5786;1581
5787;1581
5788;1582
5789;1581
5790;1579
5791;1576
5792;1564
5793;1559
5794;1555
5795;1549
5796;1546
5797;1544
5798;1544
5799;1543
5800;1541
5801;1539
5802;1538
5803;1539
5804;1540
5805;1545
5806;1548
5807;1551
5808;1554
5809;1562
5810;1565
5811;1569
5812;1576
5813;1580
5814;1583
5815;1589
5816;1592
5817;1594
5818;1598
5819;1600
5820;1602
5821;1604
5822;1606
5823;1607
5824;1608
5825;1610
5826;1611
5827;1613
5828;1612
5829;1609
5830;1603
5831;1597
5832;1585
5833;1580
5834;1576
5835;1572
5836;1570
5837;1570
5838;1572
5839;1572
5840;1575
5841;1582
5842;1585
5843;1589
5844;1592
5845;1595
5846;1596
5847;1597
5848;1599
5849;1601
5850;1601
5851;1604
5852;1604
5853;1602
5854;1598
5855;1590
5856;1587
5857;1584
5858;1579
5859;1576
5860;1575
5861;1574
5862;1575
5863;1576
5864;1580
5865;1582
5866;1585
5867;1586
5868;1586
5869;1585
5870;1584
5871;1583
5872;1582
5873;1582
5874;1583
5875;1583
5876;1583
5877;1583
5878;1584
5879;1584
5880;1584
5881;1585
5882;1586
5883;1587
5884;1583
5885;1582
5886;1582
5887;1580
5888;1580
5889;1581
5890;1581
5891;1577
5892;1575
5893;1568
5894;1550
5895;1540
5896;1531
5897;1518
5898;1514
5899;1514
5900;1515
5901;1518
5902;1522
5903;1526
5904;1538
5905;1546
5906;1553
5907;1569
5908;1576
5909;1583
5910;1594
5911;1598
5912;1603
5913;1612
5914;1614
5915;1616
5916;1618
5917;1621
5918;1622
5919;1621
5920;1621
5921;1619
5922;1619
5923;1618
5924;1619
5925;1618
5926;1616
5927;1605
5928;1599
5929;1594
5930;1589
5931;1587
5932;1587
5933;1590
5934;1593
5935;1597
5936;1602
5937;1614
5938;1620
5939;1626
5940;1638
5941;1644
5942;1649
5943;1655
5944;1651
5945;1644
5946;1626
5947;1616
5948;1607
5949;1596
5950;1571
5951;1562
5952;1554
5953;1546
5954;1545
5955;1547
5956;1554
5957;1559
5958;1562
5959;1567
5960;1579
5961;1583
5962;1587
5963;1595
5964;1598
5965;1601
5966;1608
5967;1609
5968;1611
5969;1613
5970;1613
5971;1610
5972;1609
5973;1606
5974;1606
5975;1608
5976;1613
5977;1616
5978;1620
5979;1630
5980;1635
5981;1641
5982;1646
5983;1655
5984;1657
5985;1656
5986;1643
5987;1631
5988;1617
5989;1591
5990;1579
5991;1568
5992;1559
5993;1548
5994;1545
5995;1544
5996;1548
5997;1551
5998;1557
5999;1565
6000;1570
6001;1574
6002;1581
6003;1579
6004;1572
6005;1565
6006;1554
6007;1551
6008;1549
6009;1546
6010;1543
6011;1541
6012;1542
6013;1544
6014;1547
6015;1559
6016;1567
6017;1572
6018;1578
6019;1592
6020;1600
6021;1606
6022;1616
6023;1621
6024;1625
6025;1632
6026;1634
6027;1634
6028;1635
6029;1636
6030;1636
6031;1635
6032;1629
6033;1627
6034;1625
6035;1626
6036;1627
6037;1629
6038;1635
6039;1638
6040;1643
6041;1647
6042;1657
6043;1661
6044;1665
6045;1669
6046;1672
6047;1674
6048;1678
6049;1680
6050;1679
6051;1678
6052;1678
6053;1678
6054;1679
6055;1682
6056;1684
6057;1686
6058;1690
6059;1691
6060;1694
6061;1697
6062;1702
6063;1703
6064;1706
6065;1709
6066;1711
6067;1712
6068;1714
6069;1714
6070;1715
6071;1713
6072;1709
6073;1703
6074;1694
6075;1674
6076;1663
6077;1653
6078;1637
6079;1631
6080;1627
6081;1623
6082;1623
6083;1623
6084;1625
6085;1631
6086;1634
6087;1637
6088;1642
6089;1645
6090;1648
6091;1652
6092;1654
6093;1656
6094;1660
6095;1661
6096;1663
6097;1666
6098;1671
6099;1673
6100;1674
6101;1670
6102;1667
6103;1664
6104;1656
6105;1652
6106;1650
6107;1648
6108;1645
6109;1644
6110;1644
6111;1645
6112;1646
6113;1648
6114;1650
6115;1652
6116;1653
6117;1654
6118;1656
6119;1657
6120;1657
6121;1657
6122;1656
6123;1654
6124;1651
6125;1644
6126;1632
6127;1605
6128;1588
6129;1572
6130;1558
6131;1533
6132;1523
6133;1513
6134;1501
6135;1499
6136;1499
6137;1503
6138;1507
6139;1511
6140;1521
6141;1524
6142;1526
6143;1526
6144;1525
6145;1521
6146;1514
6147;1499
6148;1493
6149;1489
6150;1486
6151;1488
6152;1489
6153;1489
6154;1493
6155;1497
6156;1500
6157;1507
6158;1506
6159;1505
6160;1502
6161;1501
6162;1499
6163;1497
6164;1494
6165;1492
6166;1489
6167;1480
6168;1475
6169;1471
6170;1470
6171;1472
6172;1476
6173;1485
6174;1490
6175;1496
6176;1502
6177;1516
6178;1524
6179;1532
6180;1547
6181;1554
6182;1560
6183;1571
6184;1576
6185;1581
6186;1588
6187;1590
6188;1592
6189;1592
6190;1593
6191;1594
6192;1594
6193;1594
6194;1594
6195;1592
6196;1583
6197;1576
6198;1570
6199;1557
6200;1549
6201;1543
6202;1537
6203;1530
6204;1528
6205;1527
6206;1528
6207;1529
6208;1530
6209;1534
6210;1536
6211;1537
6212;1538
6213;1541
6214;1542
6215;1542
6216;1536
6217;1534
6218;1532
6219;1525
6220;1523
6221;1521
6222;1521
6223;1523
6224;1525
6225;1528
6226;1535
6227;1539
6228;1542
6229;1549
6230;1553
6231;1556
6232;1562
6233;1563
6234;1564
6235;1559
6236;1556
6237;1554
6238;1551
6239;1546
6240;1543
6241;1539
6242;1531
6243;1524
6244;1516
6245;1503
6246;1497
6247;1490
6248;1483
6249;1471
6250;1468
6251;1465
6252;1464
6253;1465
6254;1465
6255;1465
6256;1463
6257;1461
6258;1461
6259;1463
6260;1465
6261;1467
6262;1465
6263;1463
6264;1462
6265;1453
6266;1451
6267;1448
6268;1448
6269;1450
6270;1451
6271;1454
6272;1460
6273;1465
6274;1469
6275;1479
6276;1483
6277;1488
6278;1495
6279;1497
6280;1499
6281;1503
6282;1505
6283;1505
6284;1503
6285;1496
6286;1492
6287;1489
6288;1486
6289;1485
6290;1485
6291;1486
6292;1487
6293;1488
6294;1490
6295;1494
6296;1495
6297;1496
6298;1488
6299;1482
6300;1474
6301;1456
6302;1447
6303;1437
6304;1413
6305;1403
6306;1395
6307;1390
6308;1386
6309;1386
6310;1388
6311;1395
6312;1399
6313;1404
6314;1412
6315;1417
6316;1423
6317;1427
6318;1436
6319;1439
6320;1439
6321;1438
6322;1437
6323;1437
6324;1438
6325;1439
6326;1440
6327;1444
6328;1445
6329;1444
6330;1443
6331;1441
6332;1440
6333;1439
6334;1438
6335;1437
6336;1437
6337;1438
6338;1439
6339;1439
6340;1438
6341;1433
6342;1432
6343;1431
6344;1429
6345;1429
6346;1429
6347;1430
6348;1431
6349;1432
6350;1435
6351;1437
6352;1438
6353;1440
6354;1443
6355;1444
6356;1445
6357;1446
6358;1447
6359;1448
6360;1448
6361;1449
6362;1449
6363;1448
6364;1447
6365;1445
6366;1444
6367;1438
6368;1435
6369;1431
6370;1424
6371;1418
6372;1409
6373;1388
6374;1375
6375;1363
6376;1352
6377;1338
6378;1334
6379;1331
6380;1326
6381;1324
6382;1324
6383;1327
6384;1330
6385;1334
6386;1337
6387;1346
6388;1350
6389;1353
6390;1360
6391;1361
6392;1363
6393;1365
6394;1367
6395;1369
6396;1372
6397;1373
6398;1374
6399;1375
6400;1380
6401;1382
6402;1384
6403;1390
6404;1393
6405;1395
6406;1401
6407;1402
6408;1405
6409;1407
6410;1410
6411;1411
6412;1412
6413;1413
6414;1413
6415;1413
6416;1406
6417;1399
6418;1390
6419;1369
6420;1359
6421;1351
6422;1343
6423;1334
6424;1331
6425;1330
6426;1331
6427;1333
6428;1334
6429;1336
6430;1336
6431;1336
6432;1338
6433;1342
6434;1344
6435;1347
6436;1353
6437;1356
6438;1359
6439;1367
6440;1371
6441;1376
6442;1386
6443;1391
6444;1395
6445;1397
6446;1404
6447;1405
6448;1408
6449;1411
6450;1412
6451;1412
6452;1412
6453;1412
6454;1413
6455;1413
6456;1413
6457;1411
6458;1408
6459;1404
6460;1402
6461;1400
6462;1397
6463;1391
6464;1383
6465;1358
6466;1347
6467;1337
6468;1329
6469;1318
6470;1313
6471;1309
6472;1305
6473;1305
6474;1305
6475;1305
6476;1303
6477;1297
6478;1291
6479;1274
6480;1266
6481;1261
6482;1257
6483;1258
6484;1261
6485;1267
6486;1270
6487;1276
6488;1292
6489;1301
6490;1311
6491;1321
6492;1339
6493;1347
6494;1353
6495;1367
6496;1373
6497;1379
6498;1386
6499;1387
6500;1388
6501;1388
6502;1392
6503;1393
6504;1394
6505;1395
6506;1396
6507;1399
6508;1404
6509;1406
6510;1410
6511;1416
6512;1419
6513;1422
6514;1426
6515;1433
6516;1436
6517;1439
6518;1444
6519;1445
6520;1446
6521;1447
6522;1448
6523;1449
6524;1450
6525;1451
6526;1451
6527;1448
6528;1445
6529;1443
6530;1438
6531;1427
6532;1423
6533;1419
6534;1416
6535;1415
6536;1415
6537;1416
6538;1420
6539;1423
6540;1427
6541;1435
6542;1439
6543;1444
6544;1453
6545;1457
6546;1460
6547;1463
6548;1469
6549;1471
6550;1473
6551;1477
6552;1478
6553;1480
6554;1482
6555;1483
6556;1484
6557;1484
6558;1485
6559;1486
6560;1487
6561;1488
6562;1489
6563;1489
6564;1490
6565;1490
6566;1490
6567;1490
6568;1490
6569;1489
6570;1489
6571;1488
6572;1488
6573;1488
6574;1488
6575;1489
6576;1489
6577;1489
6578;1488
6579;1487
6580;1485
6581;1481
6582;1475
6583;1470
6584;1461
6585;1459
6586;1457
6587;1456
6588;1456
6589;1456
6590;1453
6591;1450
6592;1449
6593;1447
6594;1446
6595;1444
6596;1441
6597;1435
6598;1433
6599;1431
6600;1427
6601;1427
6602;1427
6603;1428
6604;1429
6605;1430
6606;1432
6607;1436
6608;1438
6609;1440
6610;1445
6611;1448
6612;1452
6613;1458
6614;1461
6615;1465
6616;1469
6617;1476
6618;1480
6619;1484
6620;1491
6621;1494
6622;1497
6623;1502
6624;1505
6625;1507
6626;1511
6627;1513
6628;1513
6629;1510
6630;1499
6631;1491
6632;1481
6633;1456
6634;1443
6635;1434
6636;1422
6637;1420
6638;1420
6639;1426
6640;1431
6641;1437
6642;1440
6643;1449
6644;1454
6645;1460
6646;1471
6647;1476
6648;1482
6649;1489
6650;1488
6651;1486
6652;1481
6653;1460
6654;1450
6655;1441
6656;1427
6657;1422
6658;1419
6659;1420
6660;1422
6661;1426
6662;1432
6663;1436
6664;1439
6665;1442
6666;1443
6667;1443
6668;1444
6669;1444
6670;1444
6671;1445
6672;1442
6673;1438
6674;1432
6675;1424
6676;1408
6677;1402
6678;1397
6679;1394
6680;1394
6681;1393
6682;1394
6683;1397
6684;1402
6685;1412
6686;1417
6687;1423
6688;1427
6689;1431
6690;1433
6691;1437
6692;1448
6693;1454
6694;1460
6695;1474
6696;1481
6697;1488
6698;1495
6699;1506
6700;1508
6701;1506
6702;1496
6703;1489
6704;1483
6705;1474
6706;1471
6707;1466
6708;1459
6709;1458
6710;1459
6711;1461
6712;1466
6713;1469
6714;1468
6715;1469
6716;1471
6717;1474
6718;1483
6719;1489
6720;1496
6721;1503
6722;1518
6723;1526
6724;1534
6725;1543
6726;1543
6727;1544
6728;1546
6729;1547
6730;1548
6731;1551
6732;1553
6733;1555
6734;1558
6735;1565
6736;1569
6737;1571
6738;1577
6739;1580
6740;1583
6741;1589
6742;1592
6743;1595
6744;1597
6745;1600
6746;1602
6747;1604
6748;1608
6749;1611
6750;1613
6751;1619
6752;1622
6753;1624
6754;1628
6755;1630
6756;1632
6757;1633
6758;1636
6759;1636
6760;1635
6761;1635
6762;1631
6763;1627
6764;1622
6765;1620
6766;1619
6767;1619
6768;1619
6769;1619
6770;1620
6771;1622
6772;1624
6773;1625
6774;1629
6775;1632
6776;1634
6777;1639
6778;1641
6779;1643
6780;1645
6781;1647
6782;1646
6783;1643
6784;1626
6785;1612
6786;1599
6787;1573
6788;1561
6789;1552
6790;1545
6791;1538
6792;1539
6793;1541
6794;1554
6795;1562
6796;1570
6797;1589
6798;1598
6799;1607
6800;1622
6801;1628
6802;1634
6803;1636
6804;1635
6805;1635
6806;1635
6807;1638
6808;1639
6809;1642
6810;1646
6811;1648
6812;1649
6813;1649
6814;1640
6815;1636
6816;1630
6817;1616
6818;1606
6819;1596
6820;1578
6821;1572
6822;1567
6823;1564
6824;1565
6825;1567
6826;1570
6827;1575
6828;1577
6829;1580
6830;1588
6831;1592
6832;1598
6833;1608
6834;1613
6835;1617
6836;1619
6837;1623
6838;1625
6839;1628
6840;1635
6841;1639
6842;1643
6843;1651
6844;1655
6845;1659
6846;1663
6847;1670
6848;1674
6849;1675
6850;1678
6851;1679
6852;1681
6853;1684
6854;1684
6855;1685
6856;1681
6857;1679
6858;1678
6859;1678
6860;1677
6861;1677
6862;1678
6863;1680
6864;1682
6865;1684
6866;1685
6867;1683
6868;1672
6869;1657
6870;1626
6871;1611
6872;1598
6873;1581
6874;1576
6875;1573
6876;1569
6877;1567
6878;1566
6879;1565
6880;1566
6881;1568
6882;1571
6883;1579
6884;1584
6885;1588
6886;1590
6887;1590
6888;1591
6889;1582
6890;1571
6891;1558
6892;1548
6893;1536
6894;1534
6895;1534
6896;1538
6897;1543
6898;1550
6899;1564
6900;1573
6901;1580
6902;1592
6903;1599
6904;1606
6905;1612
6906;1620
6907;1621
6908;1622
6909;1621
6910;1620
6911;1619
6912;1617
6913;1617
6914;1619
6915;1622
6916;1628
6917;1628
6918;1630
6919;1630
6920;1628
6921;1623
6922;1614
6923;1609
6924;1605
6925;1601
6926;1596
6927;1596
6928;1597
6929;1603
6930;1608
6931;1612
6932;1614
6933;1608
6934;1598
6935;1588
6936;1575
6937;1572
6938;1572
6939;1575
6940;1579
6941;1584
6942;1599
6943;1608
6944;1617
6945;1633
6946;1640
6947;1647
6948;1653
6949;1660
6950;1659
6951;1652
6952;1634
6953;1626
6954;1620
6955;1613
6956;1611
6957;1611
6958;1612
6959;1615
6960;1618
6961;1622
6962;1623
6963;1619
6964;1614
6965;1592
6966;1571
6967;1551
6968;1520
6969;1509
6970;1502
6971;1498
6972;1502
6973;1507
6974;1515
6975;1537
6976;1550
6977;1564
6978;1591
6979;1604
6980;1616
6981;1626
6982;1645
6983;1652
6984;1658
6985;1670
6986;1676
6987;1681
6988;1689
6989;1693
6990;1696
6991;1703
6992;1704
6993;1705
6994;1706
6995;1709
6996;1709
6997;1708
6998;1704
6999;1703
7000;1702
7001;1702
7002;1701
7003;1702
7004;1702
7005;1701
7006;1699
7007;1698
7008;1697
7009;1696
7010;1696
7011;1695
7012;1695
7013;1694
7014;1694
7015;1684
7016;1675
7017;1663
7018;1643
7019;1636
7020;1630
7021;1622
7022;1619
7023;1618
7024;1621
7025;1625
7026;1629
7027;1633
7028;1641
7029;1643
7030;1644
7031;1648
7032;1650
7033;1653
7034;1657
7035;1659
7036;1662
7037;1663
7038;1667
7039;1667
7040;1666
7041;1663
7042;1662
7043;1663
7044;1664
7045;1665
7046;1666
7047;1667
7048;1667
7049;1665
7050;1661
7051;1654
7052;1650
7053;1646
7054;1639
7055;1637
7056;1633
7057;1624
7058;1618
7059;1612
7060;1605
7061;1595
7062;1591
7063;1590
7064;1592
7065;1595
7066;1600
7067;1611
7068;1618
7069;1624
7070;1637
7071;1642
7072;1648
7073;1653
7074;1661
7075;1665
7076;1668
7077;1673
7078;1675
7079;1676
7080;1669
7081;1651
7082;1623
7083;1591
7084;1535
7085;1513
7086;1495
7087;1470
7088;1461
7089;1455
7090;1449
7091;1448
7092;1448
7093;1452
7094;1465
7095;1474
7096;1484
7097;1502
7098;1511
7099;1520
7100;1537
7101;1546
7102;1553
7103;1567
7104;1571
7105;1576
7106;1580
7107;1593
7108;1598
7109;1603
7110;1611
7111;1615
7112;1618
7113;1622
7114;1623
7115;1624
7116;1627
7117;1629
7118;1631
7119;1634
7120;1635
7121;1634
7122;1633
7123;1624
7124;1617
7125;1611
7126;1600
7127;1593
7128;1584
7129;1576
7130;1565
7131;1559
7132;1553
7133;1541
7134;1535
7135;1525
7136;1508
7137;1503
7138;1500
7139;1498
7140;1499
7141;1502
7142;1506
7143;1518
7144;1525
7145;1532
7146;1547
7147;1555
7148;1563
7149;1577
7150;1583
7151;1588
7152;1598
7153;1601
7154;1605
7155;1609
7156;1616
7157;1621
7158;1623
7159;1626
7160;1626
7161;1626
7162;1628
7163;1629
7164;1629
7165;1625
7166;1596
7167;1580
7168;1567
7169;1549
7170;1544
7171;1540
7172;1540
7173;1543
7174;1548
7175;1562
7176;1570
7177;1579
7178;1587
7179;1603
7180;1609
7181;1615
7182;1625
7183;1629
7184;1632
7185;1637
7186;1639
7187;1640
7188;1642
7189;1645
7190;1646
7191;1646
7192;1648
7193;1649
7194;1649
7195;1649
7196;1649
7197;1649
7198;1649
7199;1648
7200;1647
7201;1645
7202;1639
7203;1636
7204;1634
7205;1631
7206;1630
7207;1629
7208;1627
7209;1626
7210;1626
7211;1625
7212;1622
7213;1621
7214;1620
7215;1616
7216;1613
7217;1610
7218;1604
7219;1602
7220;1601
7221;1599
7222;1597
7223;1596
7224;1593
7225;1583
7226;1579
7227;1576
7228;1573
7229;1572
7230;1571
7231;1570
7232;1569
7233;1569
7234;1569
7235;1562
7236;1558
7237;1555
7238;1550
7239;1548
7240;1546
7241;1544
7242;1542
7243;1541
7244;1536
7245;1535
7246;1535
7247;1535
7248;1536
7249;1538
7250;1539
7251;1542
7252;1544
7253;1546
7254;1549
7255;1550
7256;1551
7257;1552
7258;1553
7259;1553
7260;1552
7261;1552
7262;1551
7263;1551
7264;1550
7265;1548
7266;1547
7267;1539
7268;1534
7269;1528
7270;1523
7271;1508
7272;1499
7273;1490
7274;1470
7275;1463
7276;1456
7277;1444
7278;1441
7279;1440
7280;1443
7281;1447
7282;1451
7283;1456
7284;1467
7285;1472
7286;1475
7287;1478
7288;1478
7289;1475
7290;1466
7291;1461
7292;1458
7293;1456
7294;1454
7295;1455
7296;1456
7297;1461
7298;1462
7299;1464
7300;1468
7301;1470
7302;1472
7303;1478
7304;1480
7305;1483
7306;1484
7307;1486
7308;1487
7309;1487
7310;1485
7311;1481
7312;1477
7313;1462
7314;1456
7315;1451
7316;1448
7317;1441
7318;1434
7319;1426
7320;1413
7321;1406
7322;1399
7323;1386
7324;1382
7325;1380
7326;1383
7327;1387
7328;1393
7329;1400
7330;1416
7331;1425
7332;1432
7333;1447
7334;1453
7335;1460
7336;1471
7337;1475
7338;1479
7339;1484
7340;1486
7341;1488
7342;1490
7343;1494
7344;1496
7345;1498
7346;1501
7347;1502
7348;1503
7349;1501
7350;1500
7351;1500
7352;1499
7353;1496
7354;1495
7355;1494
7356;1492
7357;1489
7358;1485
7359;1480
7360;1477
7361;1472
7362;1463
7363;1459
7364;1454
7365;1449
7366;1430
7367;1415
7368;1400
7369;1367
7370;1353
7371;1344
7372;1334
7373;1333
7374;1332
7375;1333
7376;1343
7377;1350
7378;1358
7379;1373
7380;1380
7381;1386
7382;1399
7383;1404
7384;1410
7385;1420
7386;1425
7387;1431
7388;1436
7389;1447
7390;1452
7391;1458
7392;1468
7393;1471
7394;1475
7395;1482
7396;1485
7397;1488
7398;1490
7399;1495
7400;1497
7401;1499
7402;1501
7403;1501
7404;1501
7405;1502
7406;1503
7407;1503
7408;1504
7409;1505
7410;1506
7411;1507
7412;1508
7413;1508
7414;1509
7415;1511
7416;1511
7417;1511
7418;1510
7419;1509
7420;1508
7421;1503
7422;1498
7423;1494
7424;1489
7425;1482
7426;1480
7427;1478
7428;1473
7429;1471
7430;1469
7431;1465
7432;1462
7433;1458
7434;1454
7435;1448
7436;1446
7437;1441
7438;1430
7439;1423
7440;1416
7441;1408
7442;1406
7443;1402
7444;1397
7445;1390
7446;1381
7447;1369
7448;1352
7449;1348
7450;1346
7451;1347
7452;1348
7453;1346
7454;1341
7455;1339
7456;1339
7457;1340
7458;1344
7459;1346
7460;1346
7461;1344
7462;1341
7463;1341
7464;1345
7465;1349
7466;1353
7467;1355
7468;1361
7469;1365
7470;1370
7471;1382
7472;1388
7473;1394
7474;1405
7475;1411
7476;1417
7477;1429
7478;1435
7479;1441
7480;1445
7481;1456
7482;1460
7483;1463
7484;1463
7485;1461
7486;1458
7487;1450
7488;1445
7489;1440
7490;1436
7491;1432
7492;1431
7493;1430
7494;1431
7495;1433
7496;1435
7497;1436
7498;1435
7499;1434
7500;1433
7501;1432
7502;1432
7503;1432
7504;1432
7505;1433
7506;1433
7507;1435
7508;1435
7509;1435
7510;1430
7511;1428
7512;1425
7513;1422
7514;1418
7515;1416
7516;1414
7517;1412
7518;1411
7519;1412
7520;1414
7521;1417
7522;1419
7523;1423
7524;1421
7525;1418
7526;1412
7527;1401
7528;1397
7529;1395
7530;1393
7531;1394
7532;1396
7533;1403
7534;1407
7535;1412
7536;1418
7537;1429
7538;1431
7539;1430
7540;1423
7541;1418
7542;1412
7543;1405
7544;1403
7545;1403
7546;1406
7547;1409
7548;1412
7549;1416
7550;1424
7551;1429
7552;1433
7553;1442
7554;1445
7555;1444
7556;1439
7557;1436
7558;1433
7559;1427
7560;1403
7561;1386
7562;1368
7563;1344
7564;1337
7565;1332
7566;1330
7567;1332
7568;1335
7569;1343
7570;1348
7571;1353
7572;1359
7573;1371
7574;1377
7575;1383
7576;1392
7577;1396
7578;1399
7579;1404
7580;1404
7581;1403
7582;1402
7583;1401
7584;1397
7585;1392
7586;1372
7587;1360
7588;1348
7589;1329
7590;1321
7591;1316
7592;1312
7593;1313
7594;1316
7595;1322
7596;1335
7597;1344
7598;1352
7599;1365
7600;1371
7601;1377
7602;1389
7603;1395
7604;1400
7605;1404
7606;1413
7607;1417
7608;1419
7609;1425
7610;1427
7611;1431
7612;1437
7613;1440
7614;1443
7615;1448
7616;1451
7617;1454
7618;1456
7619;1462
7620;1464
7621;1466
7622;1470
7623;1472
7624;1474
7625;1478
7626;1479
7627;1481
7628;1482
7629;1483
7630;1480
7631;1479
7632;1473
7633;1469
7634;1466
7635;1460
7636;1456
7637;1451
7638;1444
7639;1440
7640;1437
7641;1436
7642;1434
7643;1434
7644;1434
7645;1436
7646;1436
7647;1435
7648;1426
7649;1421
7650;1415
7651;1403
7652;1398
7653;1396
7654;1395
7655;1394
7656;1393
7657;1393
7658;1396
7659;1399
7660;1403
7661;1411
7662;1415
7663;1419
7664;1423
7665;1431
7666;1433
7667;1432
7668;1431
7669;1431
7670;1431
7671;1432
7672;1432
7673;1431
7674;1430
7675;1431
7676;1433
7677;1432
7678;1430
7679;1430
7680;1430
7681;1434
7682;1437
7683;1438
7684;1431
7685;1429
7686;1429
7687;1432
7688;1435
7689;1438
7690;1441
7691;1446
7692;1445
7693;1444
7694;1442
7695;1441
7696;1441
7697;1440
7698;1440
7699;1440
7700;1441
7701;1438
7702;1437
7703;1434
7704;1430
7705;1426
7706;1420
7707;1408
7708;1404
7709;1400
7710;1394
7711;1386
7712;1385
7713;1385
7714;1388
7715;1390
7716;1393
7717;1403
7718;1408
7719;1411
7720;1417
7721;1421
7722;1425
7723;1428
7724;1434
7725;1435
7726;1434
7727;1426
7728;1421
7729;1415
7730;1405
7731;1403
7732;1401
7733;1401
7734;1397
7735;1394
7736;1391
7737;1390
7738;1391
7739;1393
7740;1399
7741;1403
7742;1407
7743;1415
7744;1418
7745;1421
7746;1421
7747;1420
7748;1422
7749;1422
7750;1425
7751;1426
7752;1429
7753;1434
7754;1438
7755;1442
7756;1446
7757;1455
7758;1459
7759;1463
7760;1471
7761;1473
7762;1475
7763;1474
7764;1470
7765;1466
7766;1459
7767;1455
7768;1452
7769;1450
7770;1448
7771;1448
7772;1448
7773;1446
7774;1444
7775;1442
7776;1433
7777;1429
7778;1426
7779;1424
7780;1417
7781;1415
7782;1413
7783;1412
7784;1413
7785;1415
7786;1420
7787;1420
7788;1419
7789;1416
7790;1416
7791;1416
7792;1416
7793;1420
7794;1422
7795;1422
7796;1423
7797;1422
7798;1419
7799;1418
7800;1417
7801;1417
7802;1417
7803;1422
7804;1426
7805;1430
7806;1441
7807;1447
7808;1453
7809;1464
7810;1469
7811;1470
7812;1471
7813;1470
7814;1467
7815;1459
7816;1445
7817;1441
7818;1437
7819;1435
7820;1434
7821;1433
7822;1434
7823;1436
7824;1439
7825;1441
7826;1447
7827;1451
7828;1454
7829;1461
7830;1464
7831;1466
7832;1469
7833;1471
7834;1472
7835;1475
7836;1476
7837;1478
7838;1479
7839;1482
7840;1484
7841;1485
7842;1488
7843;1489
7844;1491
7845;1494
7846;1495
7847;1495
7848;1493
7849;1493
7850;1493
7851;1493
7852;1492
7853;1491
7854;1486
7855;1473
7856;1468
7857;1463
7858;1455
7859;1453
7860;1450
7861;1449
7862;1438
7863;1431
7864;1424
7865;1410
7866;1405
7867;1402
7868;1400
7869;1402
7870;1404
7871;1408
7872;1417
7873;1422
7874;1428
7875;1439
7876;1443
7877;1447
7878;1454
7879;1457
7880;1460
7881;1462
7882;1461
7883;1459
7884;1459
7885;1461
7886;1463
7887;1465
7888;1464
7889;1462
7890;1460
7891;1456
7892;1456
7893;1456
7894;1456
7895;1459
7896;1460
7897;1462
7898;1463
7899;1465
7900;1467
7901;1470
7902;1472
7903;1474
7904;1479
7905;1482
7906;1486
7907;1488
7908;1494
7909;1497
7910;1501
7911;1506
7912;1507
7913;1508
7914;1508
7915;1508
7916;1509
7917;1509
7918;1510
7919;1511
7920;1511
7921;1512
7922;1511
7923;1511
7924;1488
7925;1465
7926;1440
7927;1396
7928;1378
7929;1363
7930;1353
7931;1342
7932;1343
7933;1344
7934;1354
7935;1362
7936;1372
7937;1393
7938;1405
7939;1415
7940;1426
7941;1444
7942;1452
7943;1459
7944;1468
7945;1471
7946;1471
7947;1462
7948;1457
7949;1453
7950;1441
7951;1436
7952;1433
7953;1431
7954;1433
7955;1435
7956;1438
7957;1444
7958;1447
7959;1452
7960;1460
7961;1463
7962;1467
7963;1470
7964;1471
7965;1468
7966;1464
7967;1457
7968;1456
7969;1456
7970;1457
7971;1457
7972;1456
7973;1454
7974;1448
7975;1441
7976;1436
7977;1420
7978;1413
7979;1408
7980;1405
7981;1406
7982;1409
7983;1418
7984;1424
7985;1430
7986;1435
7987;1447
7988;1452
7989;1456
7990;1457
7991;1456
7992;1456
7993;1450
7994;1447
7995;1446
7996;1447
7997;1448
7998;1451
7999;1454
8000;1463
8001;1469
8002;1474
8003;1485
8004;1491
8005;1496
8006;1505
8007;1509
8008;1512
8009;1515
8010;1519
8011;1518
8012;1513
8013;1487
8014;1474
8015;1463
8016;1446
8017;1441
8018;1437
8019;1435
8020;1436
8021;1438
8022;1440
8023;1436
8024;1436
8025;1436
8026;1440
8027;1442
8028;1444
8029;1443
8030;1440
8031;1437
8032;1435
8033;1434
8034;1435
8035;1437
8036;1445
8037;1450
8038;1454
8039;1463
8040;1464
8041;1464
8042;1464
8043;1461
8044;1457
8045;1453
8046;1449
8047;1449
8048;1448
8049;1450
8050;1452
8051;1455
8052;1461
8053;1464
8054;1467
8055;1470
8056;1468
8057;1468
8058;1467
8059;1459
8060;1454
8061;1450
8062;1442
8063;1441
8064;1441
8065;1447
8066;1452
8067;1457
8068;1463
8069;1475
8070;1479
8071;1482
8072;1486
8073;1488
8074;1491
8075;1492
8076;1494
8077;1495
8078;1496
8079;1499
8080;1501
8081;1502
8082;1505
8083;1507
8084;1509
8085;1513
8086;1515
8087;1517
8088;1519
8089;1520
8090;1521
8091;1523
8092;1524
8093;1525
8094;1526
8095;1523
8096;1521
8097;1520
8098;1517
8099;1516
8100;1515
8101;1514
8102;1514
8103;1514
8104;1515
8105;1516
8106;1514
8107;1509
8108;1489
8109;1477
8110;1466
8111;1447
8112;1438
8113;1430
8114;1424
8115;1416
8116;1414
8117;1413
8118;1409
8119;1409
8120;1409
8121;1410
8122;1411
8123;1411
8124;1409
8125;1397
8126;1383
8127;1369
8128;1347
8129;1339
8130;1335
8131;1331
8132;1334
8133;1338
8134;1354
8135;1364
8136;1376
8137;1386
8138;1407
8139;1417
8140;1426
8141;1442
8142;1449
8143;1454
8144;1460
8145;1463
8146;1467
8147;1470
8148;1479
8149;1483
8150;1488
8151;1495
8152;1498
8153;1501
8154;1508
8155;1512
8156;1515
8157;1520
8158;1522
8159;1524
8160;1525
8161;1521
8162;1517
8163;1513
8164;1510
8165;1509
8166;1508
8167;1507
8168;1504
8169;1500
8170;1496
8171;1494
8172;1490
8173;1484
8174;1465
8175;1455
8176;1449
8177;1439
8178;1436
8179;1435
8180;1430
8181;1428
8182;1427
8183;1427
8184;1431
8185;1434
8186;1438
8187;1444
8188;1445
8189;1447
8190;1452
8191;1455
8192;1459
8193;1463
8194;1463
8195;1460
8196;1455
8197;1441
8198;1435
8199;1428
8200;1418
8201;1412
8202;1405
8203;1395
8204;1392
8205;1393
8206;1395
8207;1403
8208;1408
8209;1414
8210;1428
8211;1435
8212;1443
8213;1457
8214;1464
8215;1471
8216;1482
8217;1486
8218;1488
8219;1487
8220;1472
8221;1464
8222;1457
8223;1447
8224;1445
8225;1444
8226;1447
8227;1449
8228;1453
8229;1458
8230;1464
8231;1463
8232;1461
8233;1456
8234;1454
8235;1453
8236;1454
8237;1456
8238;1458
8239;1462
8240;1462
8241;1462
8242;1463
8243;1462
8244;1462
8245;1461
8246;1463
8247;1464
8248;1466
8249;1467
8250;1466
8251;1465
8252;1463
8253;1460
8254;1460
8255;1458
8256;1440
8257;1427
8258;1415
8259;1398
8260;1392
8261;1390
8262;1390
8263;1395
8264;1399
8265;1404
8266;1416
8267;1421
8268;1424
8269;1429
8270;1429
8271;1429
8272;1429
8273;1426
8274;1422
8275;1419
8276;1412
8277;1407
8278;1405
8279;1405
8280;1408
8281;1412
8282;1423
8283;1429
8284;1437
8285;1451
8286;1457
8287;1465
8288;1471
8289;1482
8290;1486
8291;1491
8292;1498
8293;1501
8294;1503
8295;1507
8296;1509
8297;1510
8298;1510
8299;1507
8300;1507
8301;1507
8302;1507
8303;1505
8304;1505
8305;1506
8306;1507
8307;1508
8308;1508
8309;1509
8310;1510
8311;1511
8312;1512
8313;1512
8314;1512
8315;1513
8316;1514
8317;1514
8318;1516
8319;1517
8320;1518
8321;1519
8322;1522
8323;1523
8324;1524
8325;1527
8326;1527
8327;1528
8328;1521
8329;1514
8330;1507
8331;1489
8332;1482
8333;1475
8334;1468
8335;1444
8336;1431
8337;1419
8338;1402
8339;1395
8340;1388
8341;1379
8342;1376
8343;1374
8344;1373
8345;1375
8346;1378
8347;1381
8348;1390
8349;1394
8350;1397
8351;1404
8352;1409
8353;1414
8354;1426
8355;1433
8356;1440
8357;1447
8358;1460
8359;1467
8360;1474
8361;1487
8362;1493
8363;1497
8364;1505
8365;1507
8366;1511
8367;1515
8368;1517
8369;1517
8370;1513
8371;1506
8372;1502
8373;1499
8374;1492
8375;1487
8376;1478
8377;1456
8378;1446
8379;1438
8380;1433
8381;1429
8382;1429
8383;1432
8384;1442
8385;1449
8386;1456
8387;1472
8388;1480
8389;1487
8390;1493
8391;1498
8392;1497
8393;1495
8394;1487
8395;1481
8396;1476
8397;1467
8398;1463
8399;1459
8400;1448
8401;1443
8402;1438
8403;1435
8404;1429
8405;1427
8406;1426
8407;1429
8408;1431
8409;1433
8410;1436
8411;1435
8412;1434
8413;1433
8414;1434
8415;1436
8416;1440
8417;1449
8418;1454
8419;1457
8420;1459
8421;1460
8422;1462
8423;1462
8424;1459
8425;1455
8426;1450
8427;1446
8428;1447
8429;1447
8430;1452
8431;1454
8432;1456
8433;1454
8434;1455
8435;1456
8436;1459
8437;1460
8438;1462
8439;1464
8440;1470
8441;1473
8442;1476
8443;1482
8444;1483
8445;1485
8446;1488
8447;1490
8448;1492
8449;1491
8450;1489
8451;1486
8452;1484
8453;1482
8454;1483
8455;1485
8456;1489
8457;1491
8458;1491
8459;1489
8460;1487
8461;1481
8462;1477
8463;1470
8464;1468
8465;1467
8466;1466
8467;1461
8468;1458
8469;1455
8470;1455
8471;1456
8472;1456
8473;1459
8474;1460
8475;1460
8476;1457
8477;1456
8478;1454
8479;1451
8480;1448
8481;1446
8482;1446
8483;1448
8484;1450
8485;1452
8486;1460
8487;1465
8488;1471
8489;1482
8490;1488
8491;1494
8492;1506
8493;1511
8494;1517
8495;1527
8496;1532
8497;1536
8498;1538
8499;1531
8500;1527
8501;1523
8502;1512
8503;1504
8504;1496
8505;1481
8506;1476
8507;1473
8508;1472
8509;1473
8510;1476
8511;1479
8512;1487
8513;1492
8514;1497
8515;1506
8516;1510
8517;1514
8518;1520
8519;1522
8520;1525
8521;1527
8522;1531
8523;1532
8524;1534
8525;1539
8526;1541
8527;1543
8528;1547
8529;1549
8530;1551
8531;1553
8532;1555
8533;1557
8534;1557
8535;1558
8536;1558
8537;1559
8538;1558
8539;1555
8540;1551
8541;1540
8542;1531
8543;1521
8544;1512
8545;1494
8546;1486
8547;1478
8548;1456
8549;1442
8550;1427
8551;1400
8552;1388
8553;1379
8554;1364
8555;1359
8556;1358
8557;1360
8558;1372
8559;1381
8560;1391
8561;1413
8562;1424
8563;1435
8564;1455
8565;1464
8566;1472
8567;1480
8568;1493
8569;1499
8570;1505
8571;1518
8572;1524
8573;1529
8574;1538
8575;1542
8576;1545
8577;1547
8578;1546
8579;1544
8580;1543
8581;1541
8582;1541
8583;1540
8584;1543
8585;1544
8586;1543
8587;1541
8588;1541
8589;1540
8590;1535
8591;1532
8592;1530
8593;1528
8594;1526
8595;1526
8596;1527
8597;1531
8598;1533
8599;1536
8600;1540
8601;1539
8602;1538
8603;1536
8604;1535
8605;1535
8606;1535
8607;1536
8608;1537
8609;1537
8610;1542
8611;1543
8612;1545
8613;1548
8614;1546
8615;1544
8616;1541
8617;1529
8618;1523
8619;1518
8620;1514
8621;1514
8622;1515
8623;1520
8624;1524
8625;1528
8626;1532
8627;1542
8628;1546
8629;1549
8630;1551
8631;1551
8632;1550
8633;1551
8634;1549
8635;1546
8636;1538
8637;1535
8638;1534
8639;1533
8640;1528
8641;1520
8642;1509
8643;1488
8644;1480
8645;1473
8646;1464
8647;1462
8648;1461
8649;1463
8650;1467
8651;1472
8652;1478
8653;1490
8654;1493
8655;1495
8656;1485
8657;1472
8658;1456
8659;1423
8660;1410
8661;1400
8662;1394
8663;1391
8664;1396
8665;1402
8666;1423
8667;1435
8668;1447
8669;1471
8670;1481
8671;1491
8672;1507
8673;1515
8674;1522
8675;1528
8676;1540
8677;1544
8678;1549
8679;1558
8680;1563
8681;1567
8682;1575
8683;1577
8684;1579
8685;1579
8686;1580
8687;1578
8688;1576
8689;1572
8690;1570
8691;1569
8692;1570
8693;1571
8694;1573
8695;1577
8696;1581
8697;1584
8698;1586
8699;1592
8700;1593
8701;1593
8702;1590
8703;1589
8704;1588
8705;1586
8706;1586
8707;1586
8708;1586
8709;1584
8710;1585
8711;1584
8712;1585
8713;1585
8714;1585
8715;1581
8716;1578
8717;1576
8718;1573
8719;1572
8720;1572
8721;1573
8722;1575
8723;1575
8724;1574
8725;1573
8726;1573
8727;1572
8728;1573
8729;1573
8730;1573
8731;1567
8732;1564
8733;1559
8734;1553
8735;1531
8736;1516
8737;1503
8738;1479
8739;1471
8740;1466
8741;1462
8742;1463
8743;1464
8744;1469
8745;1474
8746;1479
8747;1485
8748;1498
8749;1504
8750;1510
8751;1515
8752;1516
8753;1516
8754;1509
8755;1506
8756;1503
8757;1503
8758;1501
8759;1500
8760;1500
8761;1501
8762;1501
8763;1503
8764;1504
8765;1505
8766;1506
8767;1509
8768;1513
8769;1516
8770;1517
8771;1521
8772;1523
8773;1525
8774;1529
8775;1533
8776;1536
8777;1542
8778;1541
8779;1539
8780;1536
8781;1530
8782;1527
8783;1521
8784;1504
8785;1495
8786;1488
8787;1479
8788;1478
8789;1479
8790;1480
8791;1481
8792;1483
8793;1483
8794;1482
8795;1483
8796;1485
8797;1492
8798;1497
8799;1501
8800;1512
8801;1518
8802;1524
8803;1536
8804;1543
8805;1550
8806;1556
8807;1568
8808;1573
8809;1577
8810;1581
8811;1581
8812;1581
8813;1579
8814;1578
8815;1578
8816;1578
8817;1578
8818;1579
8819;1580
8820;1581
8821;1582
8822;1584
8823;1587
8824;1584
8825;1579
8826;1552
8827;1538
8828;1526
8829;1516
8830;1499
8831;1494
8832;1490
8833;1490
8834;1493
8835;1497
8836;1509
8837;1515
8838;1521
8839;1532
8840;1536
8841;1539
8842;1543
8843;1550
8844;1552
8845;1555
8846;1559
8847;1561
8848;1563
8849;1565
8850;1566
8851;1567
8852;1567
8853;1571
8854;1573
8855;1575
8856;1578
8857;1578
8858;1576
8859;1572
8860;1570
8861;1570
8862;1570
8863;1571
8864;1573
8865;1574
8866;1578
8867;1580
8868;1582
8869;1585
8870;1587
8871;1587
8872;1588
8873;1588
8874;1586
8875;1583
8876;1582
8877;1580
8878;1579
8879;1578
8880;1577
8881;1576
8882;1571
8883;1566
8884;1560
8885;1548
8886;1544
8887;1540
8888;1532
8889;1528
8890;1526
8891;1525
8892;1522
8893;1521
8894;1520
8895;1523
8896;1526
8897;1528
8898;1536
8899;1540
8900;1542
8901;1543
8902;1546
8903;1545
8904;1545
8905;1544
8906;1543
8907;1542
8908;1541
8909;1541
8910;1541
8911;1538
8912;1535
8913;1532
8914;1530
8915;1524
8916;1518
8917;1511
8918;1499
8919;1494
8920;1492
8921;1493
8922;1496
8923;1500
8924;1504
8925;1515
8926;1520
8927;1525
8928;1536
8929;1541
8930;1545
8931;1552
8932;1555
8933;1558
8934;1563
8935;1567
8936;1570
8937;1572
8938;1577
8939;1579
8940;1581
8941;1581
8942;1574
8943;1564
8944;1547
8945;1540
8946;1536
8947;1532
8948;1533
8949;1535
8950;1538
8951;1547
8952;1552
8953;1558
8954;1568
8955;1572
8956;1574
8957;1573
8958;1567
8959;1561
8960;1555
8961;1540
8962;1532
8963;1526
8964;1517
8965;1515
8966;1514
8967;1517
8968;1520
8969;1524
8970;1532
8971;1535
8972;1538
8973;1541
8974;1545
8975;1547
8976;1550
8977;1554
8978;1555
8979;1558
8980;1562
8981;1564
8982;1566
8983;1570
8984;1572
8985;1573
8986;1574
8987;1574
8988;1571
8989;1567
8990;1554
8991;1548
8992;1541
8993;1530
8994;1526
8995;1523
8996;1522
8997;1520
8998;1518
8999;1518
9000;1519
9001;1521
9002;1524
9003;1529
9004;1533
9005;1536
9006;1543
9007;1546
9008;1549
9009;1552
9010;1555
9011;1556
9012;1555
9013;1550
9014;1544
9015;1538
9016;1520
9017;1510
9018;1502
9019;1492
9020;1489
9021;1488
9022;1489
9023;1494
9024;1498
9025;1500
9026;1501
9027;1501
9028;1502
9029;1506
9030;1509
9031;1512
9032;1517
9033;1526
9034;1531
9035;1536
9036;1548
9037;1554
9038;1559
9039;1568
9040;1571
9041;1575
9042;1580
9043;1584
9044;1586
9045;1588
9046;1590
9047;1591
9048;1592
9049;1592
9050;1592
9051;1592
9052;1590
9053;1585
9054;1580
9055;1570
9056;1566
9057;1564
9058;1562
9059;1553
9060;1546
9061;1539
9062;1527
9063;1520
9064;1514
9065;1499
9066;1493
9067;1488
9068;1487
9069;1487
9070;1489
9071;1490
9072;1495
9073;1498
9074;1499
9075;1501
9076;1503
9077;1504
9078;1508
9079;1510
9080;1512
9081;1514
9082;1514
9083;1513
9084;1513
9085;1509
9086;1504
9087;1494
9088;1469
9089;1459
9090;1451
9091;1445
9092;1439
9093;1439
9094;1441
9095;1450
9096;1457
9097;1463
9098;1478
9099;1485
9100;1493
9101;1504
9102;1509
9103;1513
9104;1516
9105;1522
9106;1526
9107;1528
9108;1536
9109;1539
9110;1543
9111;1550
9112;1554
9113;1556
9114;1563
9115;1565
9116;1567
9117;1569
9118;1572
9119;1573
9120;1574
9121;1573
9122;1568
9123;1561
9124;1542
9125;1532
9126;1524
9127;1517
9128;1509
9129;1507
9130;1507
9131;1509
9132;1511
9133;1513
9134;1518
9135;1519
9136;1518
9137;1516
9138;1514
9139;1512
9140;1511
9141;1509
9142;1509
9143;1509
9144;1511
9145;1512
9146;1514
9147;1519
9148;1521
9149;1523
9150;1525
9151;1528
9152;1528
9153;1530
9154;1533
9155;1535
9156;1536
9157;1536
9158;1534
9159;1531
9160;1523
9161;1519
9162;1515
9163;1512
9164;1510
9165;1510
9166;1511
9167;1515
9168;1517
9169;1520
9170;1527
9171;1530
9172;1532
9173;1536
9174;1538
9175;1538
9176;1538
9177;1533
9178;1528
9179;1519
9180;1492
9181;1480
9182;1468
9183;1450
9184;1445
9185;1442
9186;1444
9187;1445
9188;1447
9189;1451
9190;1460
9191;1465
9192;1470
9193;1478
9194;1481
9195;1483
9196;1488
9197;1489
9198;1491
9199;1492
9200;1493
9201;1494
9202;1495
9203;1499
9204;1501
9205;1504
9206;1508
9207;1511
9208;1513
9209;1514
9210;1513
9211;1513
9212;1512
9213;1508
9214;1503
9215;1499
9216;1491
9217;1487
9218;1485
9219;1482
9220;1482
9221;1481
9222;1479
9223;1477
9224;1473
9225;1469
9226;1455
9227;1447
9228;1438
9229;1422
9230;1418
9231;1414
9232;1412
9233;1414
9234;1418
9235;1423
9236;1436
9237;1442
9238;1450
9239;1462
9240;1468
9241;1472
9242;1480
9243;1483
9244;1486
9245;1483
9246;1464
9247;1451
9248;1440
9249;1423
9250;1416
9251;1411
9252;1410
9253;1412
9254;1416
9255;1428
9256;1434
9257;1442
9258;1449
9259;1456
9260;1458
9261;1458
9262;1460
9263;1460
9264;1460
9265;1462
9266;1463
9267;1465
9268;1467
9269;1471
9270;1472
9271;1474
9272;1477
9273;1480
9274;1482
9275;1486
9276;1486
9277;1481
9278;1476
9279;1467
9280;1464
9281;1462
9282;1460
9283;1460
9284;1460
9285;1458
9286;1457
9287;1452
9288;1436
9289;1427
9290;1417
9291;1409
9292;1399
9293;1398
9294;1400
9295;1407
9296;1413
9297;1419
9298;1434
9299;1441
9300;1448
9301;1462
9302;1470
9303;1475
9304;1481
9305;1490
9306;1493
9307;1496
9308;1501
9309;1502
9310;1503
9311;1505
9312;1507
9313;1508
9314;1508
9315;1503
9316;1501
9317;1499
9318;1497
9319;1492
9320;1488
9321;1482
9322;1480
9323;1479
9324;1479
9325;1479
9326;1480
9327;1478
9328;1473
9329;1471
9330;1469
9331;1465
9332;1464
9333;1461
9334;1454
9335;1449
9336;1441
9337;1435
9338;1424
9339;1420
9340;1418
9341;1417
9342;1418
9343;1419
9344;1420
9345;1420
9346;1421
9347;1425
9348;1428
9349;1431
9350;1433
9351;1434
9352;1433
9353;1431
9354;1418
9355;1411
9356;1405
9357;1400
9358;1399
9359;1400
9360;1401
9361;1407
9362;1412
9363;1416
9364;1428
9365;1434
9366;1440
9367;1452
9368;1458
9369;1463
9370;1473
9371;1477
9372;1480
9373;1483
9374;1489
9375;1492
9376;1495
9377;1500
9378;1501
9379;1504
9380;1507
9381;1509
9382;1510
9383;1511
9384;1511
9385;1510
9386;1509
9387;1507
9388;1505
9389;1504
9390;1499
9391;1497
9392;1494
9393;1490
9394;1487
9395;1484
9396;1480
9397;1470
9398;1463
9399;1451
9400;1415
9401;1399
9402;1387
9403;1372
9404;1369
9405;1370
9406;1377
9407;1383
9408;1389
9409;1396
9410;1412
9411;1419
9412;1427
9413;1440
9414;1445
9415;1450
9416;1448
9417;1438
9418;1429
9419;1420
9420;1409
9421;1407
9422;1406
9423;1410
9424;1414
9425;1420
9426;1434
9427;1442
9428;1449
9429;1464
9430;1469
9431;1474
9432;1477
9433;1479
9434;1479
9435;1477
9436;1473
9437;1471
9438;1468
9439;1460
9440;1454
9441;1448
9442;1441
9443;1425
9444;1417
9445;1409
9446;1394
9447;1387
9448;1381
9449;1372
9450;1367
9451;1363
9452;1352
9453;1348
9454;1345
9455;1343
9456;1344
9457;1347
9458;1352
9459;1362
9460;1366
9461;1371
9462;1381
9463;1387
9464;1394
9465;1406
9466;1412
9467;1416
9468;1418
9469;1421
9470;1421
9471;1422
9472;1422
9473;1424
9474;1426
9475;1432
9476;1435
9477;1436
9478;1439
9479;1440
9480;1439
9481;1438
9482;1430
9483;1426
9484;1423
9485;1422
9486;1423
9487;1426
9488;1429
9489;1436
9490;1436
9491;1430
9492;1417
9493;1411
9494;1407
9495;1402
9496;1399
9497;1398
9498;1399
9499;1402
9500;1406
9501;1411
9502;1423
9503;1430
9504;1434
9505;1443
9506;1444
9507;1442
9508;1433
9509;1426
9510;1421
9511;1417
9512;1416
9513;1416
9514;1418
9515;1425
9516;1429
9517;1433
9518;1443
9519;1447
9520;1451
9521;1459
9522;1461
9523;1463
9524;1465
9525;1468
9526;1470
9527;1472
9528;1474
9529;1471
9530;1468
9531;1457
9532;1450
9533;1446
9534;1441
9535;1439
9536;1439
9537;1441
9538;1446
9539;1447
9540;1449
9541;1453
9542;1455
9543;1457
9544;1457
9545;1456
9546;1453
9547;1450
9548;1442
9549;1440
9550;1438
9551;1439
9552;1441
9553;1442
9554;1443
9555;1444
9556;1445
9557;1445
9558;1443
9559;1443
9560;1444
9561;1448
9562;1452
9563;1456
9564;1467
9565;1474
9566;1480
9567;1492
9568;1497
9569;1501
9570;1502
9571;1497
9572;1494
9573;1490
9574;1477
9575;1471
9576;1467
9577;1460
9578;1458
9579;1456
9580;1457
9581;1461
9582;1464
9583;1468
9584;1474
9585;1475
9586;1478
9587;1479
9588;1476
9589;1472
9590;1465
9591;1462
9592;1460
9593;1459
9594;1461
9595;1464
9596;1466
9597;1472
9598;1474
9599;1477
9600;1482
9601;1484
9602;1486
9603;1487
9604;1491
9605;1493
9606;1495
9607;1494
9608;1491
9609;1488
9610;1484
9611;1482
9612;1482
9613;1484
9614;1485
9615;1487
9616;1489
9617;1493
9618;1497
9619;1499
9620;1501
9621;1501
9622;1502
9623;1503
9624;1504
9625;1503
9626;1499
9627;1487
9628;1480
9629;1474
9630;1464
9631;1462
9632;1459
9633;1456
9634;1455
9635;1456
9636;1459
9637;1459
9638;1458
9639;1455
9640;1445
9641;1434
9642;1422
9643;1401
9644;1392
9645;1386
9646;1380
9647;1382
9648;1386
9649;1396
9650;1404
9651;1413
9652;1423
9653;1442
9654;1449
9655;1454
9656;1465
9657;1470
9658;1474
9659;1479
9660;1481
9661;1483
9662;1483
9663;1481
9664;1475
9665;1465
9666;1448
9667;1437
9668;1427
9669;1409
9670;1404
9671;1403
9672;1404
9673;1411
9674;1417
9675;1424
9676;1441
9677;1450
9678;1458
9679;1472
9680;1478
9681;1484
9682;1493
9683;1497
9684;1499
9685;1500
9686;1499
9687;1498
9688;1499
9689;1500
9690;1499
9691;1498
9692;1497
9693;1496
9694;1494
9695;1488
9696;1483
9697;1478
9698;1469
9699;1449
9700;1442
9701;1437
9702;1434
9703;1436
9704;1438
9705;1450
9706;1457
9707;1465
9708;1474
9709;1492
9710;1500
9711;1507
9712;1516
9713;1518
9714;1518
9715;1517
9716;1517
9717;1514
9718;1502
9719;1496
9720;1488
9721;1482
9722;1472
9723;1468
9724;1464
9725;1453
9726;1450
9727;1449
9728;1453
9729;1457
9730;1462
9731;1469
9732;1481
9733;1485
9734;1489
9735;1496
9736;1498
9737;1500
9738;1505
9739;1508
9740;1510
9741;1513
9742;1513
9743;1512
9744;1510
9745;1509
9746;1506
9747;1502
9748;1496
9749;1492
9750;1488
9751;1482
9752;1481
9753;1478
9754;1477
9755;1479
9756;1481
9757;1485
9758;1492
9759;1495
9760;1498
9761;1506
9762;1510
9763;1512
9764;1518
9765;1522
9766;1526
9767;1531
9768;1542
9769;1547
9770;1552
9771;1561
9772;1565
9773;1569
9774;1571
9775;1570
9776;1570
9777;1570
9778;1571
9779;1572
9780;1573
9781;1574
9782;1574
9783;1574
9784;1577
9785;1579
9786;1581
9787;1587
9788;1588
9789;1591
9790;1593
9791;1589
9792;1576
9793;1561
9794;1520
9795;1498
9796;1480
9797;1456
9798;1449
9799;1447
9800;1451
9801;1457
9802;1465
9803;1474
9804;1495
9805;1506
9806;1516
9807;1533
9808;1541
9809;1548
9810;1560
9811;1565
9812;1570
9813;1574
9814;1581
9815;1585
9816;1589
9817;1594
9818;1595
9819;1597
9820;1601
9821;1604
9822;1606
9823;1609
9824;1611
9825;1612
9826;1614
9827;1617
9828;1620
9829;1621
9830;1624
9831;1625
9832;1625
9833;1622
9834;1618
9835;1612
9836;1604
9837;1601
9838;1597
9839;1594
9840;1589
9841;1587
9842;1586
9843;1579
9844;1574
9845;1569
9846;1557
9847;1552
9848;1548
9849;1544
9850;1532
9851;1524
9852;1516
9853;1503
9854;1499
9855;1497
9856;1500
9857;1503
9858;1506
9859;1517
9860;1525
9861;1532
9862;1541
9863;1556
9864;1563
9865;1570
9866;1582
9867;1588
9868;1593
9869;1602
9870;1602
9871;1599
9872;1580
9873;1569
9874;1560
9875;1549
9876;1535
9877;1532
9878;1532
9879;1538
9880;1544
9881;1552
9882;1568
9883;1576
9884;1584
9885;1592
9886;1605
9887;1609
9888;1611
9889;1615
9890;1615
9891;1613
9892;1608
9893;1605
9894;1604
9895;1600
9896;1589
9897;1583
9898;1579
9899;1575
9900;1574
9901;1576
9902;1581
9903;1585
9904;1589
9905;1598
9906;1602
9907;1607
9908;1609
9909;1609
9910;1609
9911;1611
9912;1614
9913;1614
9914;1615
9915;1616
9916;1615
9917;1611
9918;1606
9919;1598
9920;1596
9921;1595
9922;1597
9923;1599
9924;1603
9925;1606
9926;1605
9927;1603
9928;1592
9929;1576
9930;1558
9931;1542
9932;1515
9933;1506
9934;1497
9935;1491
9936;1493
9937;1496
9938;1504
9939;1510
9940;1518
9941;1527
9942;1544
9943;1548
9944;1551
9945;1553
9946;1550
9947;1549
9948;1549
9949;1553
9950;1557
9951;1570
9952;1578
9953;1587
9954;1596
9955;1615
9956;1624
9957;1631
9958;1645
9959;1651
9960;1656
9961;1665
9962;1669
9963;1673
9964;1676
9965;1680
9966;1681
9967;1682
9968;1681
9969;1679
9970;1674
9971;1663
9972;1659
9973;1654
9974;1650
9975;1649
9976;1651
9977;1650
9978;1649
9979;1650
9980;1651
9981;1656
9982;1657
9983;1657
9984;1660
9985;1662
9986;1664
9987;1666
9988;1670
9989;1673
9990;1675
9991;1680
9992;1683
9993;1685
9994;1688
9995;1687
9996;1685
9997;1681
9998;1675
9999;1672
10000;1670
10001;1667
10002;1664
10003;1662
10004;1660
10005;1659
10006;1660
10007;1656
10008;1652
10009;1644
10010;1634
10011;1610
10012;1599
10013;1587
10014;1566
10015;1557
10016;1549
10017;1536
10018;1531
10019;1529
10020;1528
10021;1526
10022;1526
10023;1529
10024;1540
10025;1546
10026;1553
10027;1569
10028;1577
10029;1586
10030;1600
10031;1605
10032;1609
10033;1613
10034;1618
10035;1621
10036;1624
10037;1632
10038;1636
10039;1639
10040;1636
10041;1635
10042;1634
10043;1633
10044;1635
10045;1637
10046;1640
10047;1646
10048;1650
10049;1653
10050;1658
10051;1659
10052;1660
10053;1652
10054;1643
10055;1634
10056;1626
10057;1616
10058;1613
10059;1612
10060;1615
10061;1618
10062;1620
10063;1617
10064;1612
10065;1606
10066;1601
10067;1593
10068;1591
10069;1590
10070;1589
10071;1591
10072;1594
10073;1603
10074;1608
10075;1614
10076;1619
10077;1631
10078;1635
10079;1638
10080;1636
10081;1629
10082;1619
10083;1597
10084;1587
10085;1578
10086;1563
10087;1559
10088;1557
10089;1554
10090;1555
10091;1557
10092;1561
10093;1571
10094;1577
10095;1583
10096;1598
10097;1605
10098;1613
10099;1626
10100;1631
10101;1634
10102;1636
10103;1634
10104;1632
10105;1630
10106;1628
10107;1625
10108;1624
10109;1623
10110;1624
10111;1624
10112;1626
10113;1631
10114;1634
10115;1637
10116;1645
10117;1649
10118;1653
10119;1660
10120;1663
10121;1665
10122;1667
10123;1670
10124;1672
10125;1674
10126;1678
10127;1680
10128;1682
10129;1685
10130;1683
10131;1678
10132;1670
10133;1646
10134;1626
10135;1605
10136;1568
10137;1550
10138;1534
10139;1509
10140;1500
10141;1497
10142;1499
10143;1504
10144;1511
10145;1520
10146;1540
10147;1549
10148;1556
10149;1569
10150;1574
10151;1578
10152;1582
10153;1583
10154;1584
10155;1587
10156;1594
10157;1599
10158;1605
10159;1615
10160;1620
10161;1626
10162;1634
10163;1636
10164;1637
10165;1641
10166;1643
10167;1645
10168;1648
10169;1654
10170;1657
10171;1660
10172;1664
10173;1664
10174;1663
10175;1656
10176;1649
10177;1637
10178;1625
10179;1605
10180;1597
10181;1592
10182;1580
10183;1573
10184;1566
10185;1551
10186;1546
10187;1543
10188;1536
10189;1532
10190;1530
10191;1529
10192;1531
10193;1534
10194;1538
10195;1548
10196;1551
10197;1552
10198;1548
10199;1548
10200;1548
10201;1553
10202;1557
10203;1563
10204;1569
10205;1583
10206;1590
10207;1597
10208;1610
10209;1615
10210;1621
10211;1631
10212;1636
10213;1639
10214;1640
10215;1623
10216;1612
10217;1600
10218;1582
10219;1576
10220;1572
10221;1573
10222;1576
10223;1581
10224;1587
10225;1601
10226;1609
10227;1617
10228;1633
10229;1639
10230;1643
10231;1649
10232;1650
10233;1652
10234;1655
10235;1656
10236;1657
10237;1659
10238;1661
10239;1663
10240;1664
10241;1668
10242;1669
10243;1671
10244;1672
10245;1672
10246;1672
10247;1671
10248;1670
10249;1669
10250;1668
10251;1659
10252;1655
10253;1651
10254;1644
10255;1642
10256;1637
10257;1621
10258;1613
10259;1605
10260;1597
10261;1584
10262;1578
10263;1575
10264;1572
10265;1572
10266;1573
10267;1576
10268;1573
10269;1569
10270;1565
10271;1560
10272;1558
10273;1558
10274;1556
10275;1555
10276;1556
10277;1560
10278;1561
10279;1564
10280;1568
10281;1570
10282;1570
10283;1571
10284;1571
10285;1572
10286;1571
10287;1561
10288;1555
10289;1550
10290;1543
10291;1541
10292;1541
10293;1542
10294;1549
10295;1554
10296;1561
10297;1575
10298;1583
10299;1590
10300;1604
10301;1608
10302;1612
10303;1620
10304;1624
10305;1626
10306;1629
10307;1630
10308;1629
10309;1628
10310;1622
10311;1617
10312;1613
10313;1607
10314;1605
10315;1604
10316;1602
10317;1602
10318;1603
10319;1604
10320;1609
10321;1610
10322;1612
10323;1617
10324;1618
10325;1618
10326;1612
10327;1605
10328;1597
10329;1589
10330;1573
10331;1565
10332;1556
10333;1541
10334;1536
10335;1531
10336;1519
10337;1515
10338;1513
10339;1513
10340;1513
10341;1513
10342;1509
10343;1498
10344;1489
10345;1481
10346;1470
10347;1468
10348;1467
10349;1472
10350;1477
10351;1483
10352;1490
10353;1505
10354;1512
10355;1519
10356;1533
10357;1539
10358;1545
10359;1551
10360;1553
10361;1555
10362;1557
10363;1562
10364;1565
10365;1568
10366;1577
10367;1582
10368;1587
10369;1593
10370;1595
10371;1597
10372;1602
10373;1604
10374;1607
10375;1608
10376;1607
10377;1605
10378;1602
10379;1590
10380;1583
10381;1577
10382;1563
10383;1554
10384;1545
10385;1536
10386;1525
10387;1523
10388;1523
10389;1526
10390;1528
10391;1532
10392;1539
10393;1543
10394;1548
10395;1552
10396;1561
10397;1565
10398;1569
10399;1574
10400;1576
10401;1573
10402;1565
10403;1561
10404;1558
10405;1553
10406;1553
10407;1553
10408;1551
10409;1542
10410;1534
10411;1526
10412;1498
10413;1482
10414;1468
10415;1444
10416;1434
10417;1429
10418;1427
10419;1431
10420;1436
10421;1443
10422;1463
10423;1474
10424;1484
10425;1505
10426;1515
10427;1524
10428;1541
10429;1547
10430;1553
10431;1559
10432;1569
10433;1573
10434;1576
10435;1582
10436;1585
10437;1589
10438;1595
10439;1597
10440;1600
10441;1602
10442;1605
10443;1606
10444;1606
10445;1608
10446;1609
10447;1609
10448;1611
10449;1611
10450;1612
10451;1611
10452;1610
10453;1608
10454;1604
10455;1591
10456;1585
10457;1580
10458;1573
10459;1568
10460;1564
10461;1557
10462;1551
10463;1545
10464;1538
10465;1531
10466;1530
10467;1529
10468;1527
10469;1527
10470;1528
10471;1533
10472;1534
10473;1534
10474;1534
10475;1530
10476;1528
10477;1526
10478;1525
10479;1525
10480;1524
10481;1525
10482;1524
10483;1522
10484;1521
10485;1521
10486;1522
10487;1522
10488;1519
10489;1516
10490;1513
10491;1499
10492;1489
10493;1479
10494;1464
10495;1460
10496;1458
10497;1461
10498;1465
10499;1470
10500;1477
10501;1492
10502;1499
10503;1506
10504;1516
10505;1520
10506;1523
10507;1520
10508;1516
10509;1513
10510;1511
10511;1509
10512;1510
10513;1512
10514;1522
10515;1527
10516;1533
10517;1545
10518;1550
10519;1556
10520;1565
10521;1570
10522;1574
10523;1578
10524;1582
10525;1584
10526;1585
10527;1587
10528;1588
10529;1589
10530;1590
10531;1589
10532;1590
10533;1588
10534;1578
10535;1571
10536;1563
10537;1541
10538;1528
10539;1515
10540;1487
10541;1475
10542;1467
10543;1457
10544;1454
10545;1454
10546;1457
10547;1466
10548;1472
10549;1479
10550;1494
10551;1501
10552;1508
10553;1520
10554;1525
10555;1529
10556;1537
10557;1539
10558;1540
10559;1540
10560;1533
10561;1524
10562;1511
10563;1483
10564;1471
10565;1461
10566;1451
10567;1449
10568;1450
10569;1451
10570;1456
10571;1458
10572;1462
10573;1471
10574;1475
10575;1477
10576;1481
10577;1481
10578;1482
10579;1484
10580;1486
10581;1489
10582;1493
10583;1504
10584;1510
10585;1516
10586;1527
10587;1532
10588;1538
10589;1547
10590;1551
10591;1554
10592;1556
10593;1557
10594;1557
10595;1557
10596;1557
10597;1556
10598;1555
10599;1554
10600;1555
10601;1556
10602;1557
10603;1558
10604;1558
10605;1559
10606;1556
10607;1555
10608;1553
10609;1547
10610;1545
10611;1542
10612;1526
10613;1517
10614;1508
10615;1493
10616;1486
10617;1479
10618;1471
10619;1458
10620;1455
10621;1454
10622;1453
10623;1455
10624;1457
10625;1464
10626;1467
10627;1472
10628;1476
10629;1487
10630;1492
10631;1497
10632;1508
10633;1513
10634;1517
10635;1525
10636;1529
10637;1532
10638;1537
10639;1540
10640;1543
10641;1546
10642;1551
10643;1554
10644;1556
10645;1561
10646;1563
10647;1565
10648;1568
10649;1569
10650;1570
10651;1571
10652;1571
10653;1571
10654;1571
10655;1569
10656;1566
10657;1563
10658;1557
10659;1552
10660;1545
10661;1527
10662;1518
10663;1509
10664;1497
10665;1494
10666;1493
10667;1492
10668;1495
10669;1498
10670;1501
10671;1508
10672;1511
10673;1514
10674;1520
10675;1523
10676;1524
10677;1526
10678;1525
10679;1524
10680;1522
10681;1515
10682;1511
10683;1509
10684;1504
10685;1499
10686;1490
10687;1467
10688;1455
10689;1444
10690;1437
10691;1427
10692;1425
10693;1425
10694;1426
10695;1427
10696;1428
10697;1431
10698;1430
10699;1428
10700;1424
10701;1415
10702;1409
10703;1399
10704;1379
10705;1372
10706;1367
10707;1364
10708;1366
10709;1371
10710;1376
10711;1392
10712;1401
10713;1410
10714;1429
10715;1436
10716;1442
10717;1453
10718;1458
10719;1463
10720;1472
10721;1477
10722;1483
10723;1489
10724;1499
10725;1504
10726;1509
10727;1519
10728;1524
10729;1527
10730;1534
10731;1537
10732;1540
10733;1544
10734;1547
10735;1548
10736;1549
10737;1552
10738;1553
10739;1554
10740;1555
10741;1552
10742;1550
10743;1544
10744;1541
10745;1539
10746;1538
10747;1533
10748;1530
10749;1528
10750;1521
10751;1518
10752;1515
10753;1511
10754;1510
10755;1508
10756;1507
10757;1506
10758;1505
10759;1505
10760;1500
10761;1498
10762;1494
10763;1486
10764;1480
10765;1475
10766;1466
10767;1460
10768;1453
10769;1431
10770;1421
10771;1415
10772;1411
10773;1409
10774;1411
10775;1414
10776;1424
10777;1431
10778;1438
10779;1454
10780;1460
10781;1467
10782;1472
10783;1478
10784;1478
10785;1476
10786;1466
10787;1458
10788;1448
10789;1434
10790;1429
10791;1427
10792;1425
10793;1424
10794;1423
10795;1422
10796;1423
10797;1426
10798;1430
10799;1440
10800;1445
10801;1451
10802;1464
10803;1471
10804;1478
10805;1484
10806;1497
10807;1503
10808;1508
10809;1518
10810;1522
10811;1524
10812;1527
10813;1528
10814;1529
10815;1531
10816;1532
10817;1533
10818;1533
10819;1534
10820;1533
10821;1532
10822;1530
10823;1529
10824;1528
10825;1523
10826;1519
10827;1515
10828;1508
10829;1506
10830;1504
10831;1503
10832;1500
10833;1497
10834;1496
10835;1495
10836;1495
10837;1496
10838;1498
10839;1499
10840;1497
10841;1493
10842;1479
10843;1471
10844;1465
10845;1455
10846;1451
10847;1445
10848;1435
10849;1431
10850;1428
10851;1428
10852;1430
10853;1433
10854;1437
10855;1448
10856;1455
10857;1461
10858;1473
10859;1478
10860;1483
10861;1493
10862;1497
10863;1500
10864;1504
10865;1510
10866;1512
10867;1514
10868;1519
10869;1521
10870;1523
10871;1528
10872;1528
10873;1528
10874;1527
10875;1520
10876;1516
10877;1510
10878;1493
10879;1483
10880;1476
10881;1465
10882;1462
10883;1461
10884;1462
10885;1464
10886;1466
10887;1468
10888;1474
10889;1477
10890;1480
10891;1486
10892;1487
10893;1486
10894;1484
10895;1483
10896;1481
10897;1481
10898;1482
10899;1482
10900;1481
10901;1475
10902;1470
10903;1464
10904;1454
10905;1450
10906;1446
10907;1444
10908;1444
10909;1447
10910;1450
10911;1459
10912;1464
10913;1469
10914;1482
10915;1487
10916;1494
10917;1503
10918;1507
10919;1511
10920;1518
10921;1521
10922;1524
10923;1527
10924;1530
10925;1531
10926;1532
10927;1535
10928;1535
10929;1534
10930;1525
10931;1521
10932;1518
10933;1514
10934;1510
10935;1509
10936;1506
10937;1501
10938;1500
10939;1498
10940;1492
10941;1488
10942;1484
10943;1474
10944;1471
10945;1468
10946;1467
