index;adc
0;1464
1;1463
2;1463
3;1462
4;1462
5;1461
6;1462
7;1462
8;1461
9;1462
10;1462
11;1462
12;1462
13;1462
14;1462
15;1462
16;1463
17;1463
18;1463
19;1463
20;1463
21;1463
22;1464
23;1464
24;1464
25;1464
26;1464
27;1465
28;1464
29;1465
30;1464
31;1465
32;1464
33;1464
34;1464
35;1463
36;1463
37;1463
38;1463
39;1462
40;1462
41;1462
42;1461
43;1461
44;1460
45;1460
46;1459
47;1459
48;1459
49;1458
50;1457
51;1457
52;1457
53;1456
54;1456
55;1456
56;1456
57;1456
58;1456
59;1456
60;1456
61;1456
62;1456
63;1456
64;1456
65;1457
66;1457
67;1457
68;1457
69;1457
70;1458
71;1458
72;1458
73;1459
74;1459
75;1459
76;1460
77;1460
78;1460
79;1460
80;1460
81;1460
82;1460
83;1460
84;1460
85;1460
86;1459
87;1459
88;1459
89;1459
90;1458
91;1458
92;1458
93;1458
94;1457
95;1457
96;1456
97;1456
98;1455
99;1455
100;1454
101;1454
102;1454
103;1453
104;1453
105;1453
106;1453
107;1453
108;1454
109;1454
110;1454
111;1454
112;1454
113;1454
114;1455
115;1455
116;1455
117;1455
118;1456
119;1456
120;1456
121;1457
122;1457
123;1457
124;1458
125;1459
126;1459
127;1459
128;1460
129;1459
130;1459
131;1460
132;1460
133;1460
134;1460
135;1460
136;1459
137;1459
138;1459
139;1459
140;1459
141;1458
142;1458
143;1458
144;1457
145;1457
146;1457
147;1456
148;1456
149;1456
150;1455
151;1455
152;1455
153;1454
154;1454
155;1454
156;1454
157;1454
158;1454
159;1454
160;1455
161;1455
162;1455
163;1456
164;1456
165;1456
166;1456
167;1457
168;1457
169;1457
170;1458
171;1458
172;1458
173;1459
174;1460
175;1460
176;1460
177;1461
178;1461
179;1461
180;1462
181;1462
182;1462
183;1462
184;1462
185;1461
186;1462
187;1462
188;1461
189;1461
190;1461
191;1461
192;1460
193;1460
194;1460
195;1460
196;1460
197;1459
198;1459
199;1459
200;1458
201;1458
202;1458
203;1458
204;1457
205;1457
206;1457
207;1458
208;1458
209;1458
210;1458
211;1458
212;1458
213;1459
214;1459
215;1459
216;1460
217;1460
218;1460
219;1461
220;1462
221;1463
222;1462
223;1463
224;1464
225;1464
226;1465
227;1465
228;1465
229;1466
230;1466
231;1466
232;1466
233;1466
234;1466
235;1466
236;1466
237;1466
238;1466
239;1466
240;1466
241;1466
242;1466
243;1465
244;1465
245;1465
246;1465
247;1464
248;1464
249;1463
250;1463
251;1463
252;1463
253;1463
254;1463
255;1463
256;1463
257;1463
258;1463
259;1463
260;1463
261;1463
262;1464
263;1465
264;1464
265;1465
266;1466
267;1466
268;1466
269;1467
270;1467
271;1468
272;1468
273;1469
274;1469
275;1470
276;1470
277;1471
278;1471
279;1472
280;1472
281;1472
282;1472
283;1472
284;1472
285;1472
286;1472
287;1472
288;1472
289;1472
290;1472
291;1472
292;1471
293;1471
294;1471
295;1471
296;1471
297;1470
298;1470
299;1470
300;1470
301;1469
302;1469
303;1469
304;1468
305;1468
306;1468
307;1468
308;1469
309;1469
310;1469
311;1469
312;1469
313;1470
314;1470
315;1471
316;1471
317;1471
318;1472
319;1472
320;1472
321;1474
322;1473
323;1474
324;1474
325;1475
326;1476
327;1476
328;1477
329;1477
330;1477
331;1478
332;1478
333;1478
334;1478
335;1478
336;1478
337;1478
338;1478
339;1478
340;1478
341;1477
342;1477
343;1478
344;1477
345;1477
346;1477
347;1477
348;1476
349;1475
350;1475
351;1475
352;1474
353;1474
354;1474
355;1474
356;1474
357;1474
358;1474
359;1474
360;1474
361;1474
362;1475
363;1475
364;1475
365;1475
366;1476
367;1476
368;1477
369;1477
370;1478
371;1478
372;1478
373;1478
374;1479
375;1480
376;1480
377;1481
378;1481
379;1481
380;1482
381;1482
382;1482
383;1482
384;1482
385;1483
386;1482
387;1482
388;1482
389;1483
390;1482
391;1482
392;1482
393;1482
394;1481
395;1482
396;1481
397;1481
398;1480
399;1480
400;1480
401;1479
402;1479
403;1478
404;1478
405;1478
406;1478
407;1478
408;1478
409;1478
410;1478
411;1478
412;1479
413;1479
414;1479
415;1479
416;1480
417;1480
418;1481
419;1481
420;1481
421;1482
422;1482
423;1483
424;1483
425;1484
426;1484
427;1485
428;1485
429;1485
430;1486
431;1486
432;1486
433;1487
434;1487
435;1487
436;1487
437;1487
438;1486
439;1486
440;1486
441;1486
442;1486
443;1486
444;1485
445;1485
446;1485
447;1485
448;1484
449;1484
450;1484
451;1483
452;1483
453;1483
454;1483
455;1482
456;1482
457;1482
458;1482
459;1482
460;1482
461;1482
462;1482
463;1483
464;1483
465;1483
466;1484
467;1484
468;1484
469;1485
470;1485
471;1485
472;1486
473;1486
474;1487
475;1487
476;1488
477;1488
478;1488
479;1489
480;1489
481;1490
482;1490
483;1490
484;1490
485;1490
486;1490
487;1490
488;1490
489;1489
490;1489
491;1489
492;1489
493;1488
494;1488
495;1488
496;1488
497;1487
498;1487
499;1486
500;1486
501;1486
502;1485
503;1485
504;1485
505;1485
506;1484
507;1484
508;1484
509;1484
510;1484
511;1484
512;1484
513;1484
514;1485
515;1485
516;1485
517;1486
518;1486
519;1486
520;1487
521;1487
522;1487
523;1488
524;1488
525;1489
526;1489
527;1489
528;1490
529;1490
530;1490
531;1491
532;1491
533;1491
534;1491
535;1491
536;1491
537;1491
538;1491
539;1490
540;1490
541;1490
542;1490
543;1489
544;1489
545;1489
546;1488
547;1488
548;1488
549;1488
550;1487
551;1486
552;1486
553;1486
554;1485
555;1484
556;1485
557;1484
558;1484
559;1485
560;1484
561;1484
562;1484
563;1485
564;1485
565;1485
566;1485
567;1485
568;1485
569;1486
570;1486
571;1487
572;1487
573;1487
574;1488
575;1488
576;1488
577;1489
578;1489
579;1489
580;1489
581;1490
582;1490
583;1490
584;1490
585;1490
586;1490
587;1490
588;1490
589;1489
590;1489
591;1489
592;1489
593;1488
594;1488
595;1488
596;1487
597;1487
598;1487
599;1486
600;1486
601;1485
602;1485
603;1485
604;1484
605;1483
606;1483
607;1483
608;1483
609;1483
610;1483
611;1483
612;1483
613;1483
614;1483
615;1483
616;1483
617;1484
618;1484
619;1484
620;1485
621;1485
622;1485
623;1485
624;1485
625;1486
626;1486
627;1487
628;1487
629;1488
630;1488
631;1488
632;1488
633;1488
634;1488
635;1488
636;1488
637;1488
638;1488
639;1488
640;1487
641;1487
642;1487
643;1487
644;1486
645;1486
646;1485
647;1485
648;1485
649;1484
650;1483
651;1483
652;1483
653;1482
654;1482
655;1482
656;1481
657;1481
658;1480
659;1480
660;1480
661;1480
662;1480
663;1480
664;1480
665;1480
666;1481
667;1480
668;1481
669;1481
670;1482
671;1482
672;1482
673;1483
674;1483
675;1483
676;1483
677;1484
678;1484
679;1485
680;1485
681;1485
682;1485
683;1485
684;1485
685;1485
686;1485
687;1485
688;1484
689;1484
690;1484
691;1484
692;1483
693;1483
694;1483
695;1483
696;1482
697;1481
698;1481
699;1481
700;1480
701;1480
702;1479
703;1479
704;1478
705;1478
706;1477
707;1477
708;1477
709;1477
710;1476
711;1477
712;1476
713;1476
714;1477
715;1477
716;1477
717;1477
718;1477
719;1478
720;1478
721;1478
722;1479
723;1479
724;1479
725;1480
726;1480
727;1480
728;1480
729;1481
730;1481
731;1481
732;1482
733;1482
734;1482
735;1482
736;1482
737;1481
738;1481
739;1481
740;1481
741;1481
742;1481
743;1480
744;1480
745;1479
746;1479
747;1478
748;1478
749;1477
750;1477
751;1476
752;1476
753;1476
754;1475
755;1475
756;1474
757;1474
758;1474
759;1474
760;1474
761;1473
762;1474
763;1474
764;1474
765;1474
766;1474
767;1474
768;1474
769;1475
770;1475
771;1475
772;1475
773;1476
774;1476
775;1476
776;1477
777;1477
778;1478
779;1478
780;1478
781;1478
782;1478
783;1478
784;1479
785;1478
786;1479
787;1478
788;1478
789;1478
790;1477
791;1477
792;1477
793;1477
794;1477
795;1476
796;1476
797;1475
798;1475
799;1475
800;1474
801;1474
802;1474
803;1473
804;1472
805;1472
806;1472
807;1471
808;1471
809;1471
810;1471
811;1470
812;1470
813;1471
814;1471
815;1471
816;1471
817;1471
818;1471
819;1471
820;1472
821;1472
822;1472
823;1473
824;1473
825;1473
826;1473
827;1474
828;1474
829;1474
830;1475
831;1475
832;1475
833;1475
834;1476
835;1476
836;1476
837;1476
838;1475
839;1475
840;1475
841;1475
842;1475
843;1475
844;1474
845;1474
846;1473
847;1473
848;1472
849;1472
850;1472
851;1471
852;1471
853;1470
854;1470
855;1470
856;1468
857;1468
858;1468
859;1468
860;1468
861;1467
862;1467
863;1467
864;1467
865;1468
866;1468
867;1468
868;1468
869;1468
870;1468
871;1468
872;1469
873;1469
874;1469
875;1470
876;1470
877;1470
878;1471
879;1471
880;1472
881;1472
882;1472
883;1472
884;1472
885;1472
886;1472
887;1472
888;1472
889;1472
890;1472
891;1472
892;1471
893;1471
894;1471
895;1470
896;1470
897;1470
898;1469
899;1469
900;1469
901;1468
902;1467
903;1467
904;1466
905;1466
906;1466
907;1465
908;1465
909;1465
910;1465
911;1464
912;1464
913;1464
914;1465
915;1464
916;1465
917;1465
918;1465
919;1466
920;1466
921;1466
922;1466
923;1467
924;1467
925;1467
926;1468
927;1468
928;1468
929;1469
930;1469
931;1470
932;1470
933;1471
934;1470
935;1471
936;1471
937;1471
938;1471
939;1471
940;1471
941;1470
942;1470
943;1470
944;1470
945;1469
946;1469
947;1469
948;1469
949;1468
950;1468
951;1467
952;1467
953;1466
954;1466
955;1465
956;1465
957;1465
958;1464
959;1464
960;1464
961;1463
962;1464
963;1464
964;1464
965;1464
966;1464
967;1464
968;1464
969;1464
970;1465
971;1465
972;1466
973;1466
974;1466
975;1467
976;1467
977;1467
978;1468
979;1468
980;1469
981;1469
982;1470
983;1470
984;1470
985;1471
986;1470
987;1471
988;1471
989;1471
990;1471
991;1471
992;1470
993;1470
994;1470
995;1470
996;1469
997;1469
998;1469
999;1468
1000;1468
1001;1468
1002;1467
1003;1467
1004;1467
1005;1466
1006;1466
1007;1466
1008;1465
1009;1465
1010;1465
1011;1465
1012;1464
1013;1465
1014;1465
1015;1465
1016;1466
1017;1465
1018;1465
1019;1466
1020;1466
1021;1467
1022;1467
1023;1467
1024;1468
1025;1467
1026;1468
1027;1469
1028;1469
1029;1470
1030;1470
1031;1471
1032;1471
1033;1471
1034;1472
1035;1472
1036;1472
1037;1472
1038;1472
1039;1472
1040;1472
1041;1472
1042;1472
1043;1471
1044;1472
1045;1472
1046;1471
1047;1471
1048;1471
1049;1471
1050;1470
1051;1470
1052;1470
1053;1470
1054;1469
1055;1468
1056;1468
1057;1468
1058;1467
1059;1467
1060;1467
1061;1467
1062;1467
1063;1467
1064;1467
1065;1467
1066;1467
1067;1467
1068;1467
1069;1467
1070;1468
1071;1469
1072;1468
1073;1469
1074;1469
1075;1470
1076;1469
1077;1470
1078;1471
1079;1471
1080;1472
1081;1472
1082;1473
1083;1473
1084;1473
1085;1474
1086;1474
1087;1474
1088;1474
1089;1474
1090;1475
1091;1475
1092;1474
1093;1474
1094;1474
1095;1474
1096;1473
1097;1473
1098;1473
1099;1473
1100;1473
1101;1472
1102;1472
1103;1472
1104;1471
1105;1471
1106;1470
1107;1470
1108;1470
1109;1470
1110;1469
1111;1469
1112;1469
1113;1469
1114;1469
1115;1469
1116;1469
1117;1469
1118;1469
1119;1470
1120;1470
1121;1470
1122;1470
1123;1471
1124;1472
1125;1472
1126;1472
1127;1473
1128;1473
1129;1473
1130;1474
1131;1474
1132;1475
1133;1476
1134;1476
1135;1476
1136;1476
1137;1476
1138;1476
1139;1477
1140;1476
1141;1477
1142;1476
1143;1476
1144;1476
1145;1476
1146;1476
1147;1476
1148;1475
1149;1475
1150;1475
1151;1474
1152;1474
1153;1474
1154;1473
1155;1473
1156;1473
1157;1472
1158;1472
1159;1471
1160;1471
1161;1471
1162;1471
1163;1471
1164;1471
1165;1471
1166;1471
1167;1471
1168;1471
1169;1472
1170;1472
1171;1472
1172;1472
1173;1473
1174;1473
1175;1474
1176;1474
1177;1474
1178;1475
1179;1475
1180;1475
1181;1476
1182;1477
1183;1476
1184;1477
1185;1477
1186;1478
1187;1478
1188;1478
1189;1478
1190;1478
1191;1478
1192;1478
1193;1478
1194;1477
1195;1478
1196;1478
1197;1477
1198;1477
1199;1477
1200;1476
1201;1476
1202;1475
1203;1475
1204;1475
1205;1474
1206;1474
1207;1473
1208;1473
1209;1473
1210;1472
1211;1472
1212;1472
1213;1472
1214;1472
1215;1472
1216;1472
1217;1472
1218;1473
1219;1473
1220;1473
1221;1473
1222;1473
1223;1474
1224;1474
1225;1475
1226;1475
1227;1476
1228;1476
1229;1476
1230;1476
1231;1477
1232;1477
1233;1477
1234;1477
1235;1478
1236;1478
1237;1478
1238;1477
1239;1477
1240;1477
1241;1476
1242;1476
1243;1476
1244;1475
1245;1474
1246;1473
1247;1472
1248;1472
1249;1471
1250;1470
1251;1469
1252;1469
1253;1468
1254;1466
1255;1465
1256;1465
1257;1463
1258;1462
1259;1462
1260;1461
1261;1459
1262;1459
1263;1458
1264;1457
1265;1457
1266;1456
1267;1455
1268;1455
1269;1455
1270;1454
1271;1454
1272;1454
1273;1454
1274;1453
1275;1453
1276;1453
1277;1452
1278;1452
1279;1451
1280;1451
1281;1451
1282;1450
1283;1450
1284;1450
1285;1450
1286;1449
1287;1449
1288;1449
1289;1448
1290;1448
1291;1447
1292;1447
1293;1445
1294;1445
1295;1444
1296;1444
1297;1442
1298;1442
1299;1441
1300;1440
1301;1439
1302;1439
1303;1437
1304;1437
1305;1436
1306;1435
1307;1434
1308;1433
1309;1432
1310;1431
1311;1430
1312;1429
1313;1428
1314;1428
1315;1427
1316;1427
1317;1426
1318;1426
1319;1425
1320;1425
1321;1425
1322;1425
1323;1424
1324;1424
1325;1424
1326;1424
1327;1424
1328;1424
1329;1423
1330;1424
1331;1423
1332;1424
1333;1424
1334;1424
1335;1424
1336;1424
1337;1423
1338;1424
1339;1423
1340;1423
1341;1423
1342;1423
1343;1422
1344;1422
1345;1422
1346;1421
1347;1421
1348;1420
1349;1420
1350;1419
1351;1419
1352;1418
1353;1418
1354;1417
1355;1417
1356;1416
1357;1416
1358;1415
1359;1414
1360;1414
1361;1413
1362;1413
1363;1413
1364;1413
1365;1412
1366;1412
1367;1412
1368;1412
1369;1412
1370;1412
1371;1412
1372;1412
1373;1413
1374;1413
1375;1413
1376;1414
1377;1414
1378;1414
1379;1415
1380;1415
1381;1416
1382;1417
1383;1417
1384;1418
1385;1419
1386;1419
1387;1419
1388;1420
1389;1420
1390;1420
1391;1420
1392;1421
1393;1421
1394;1421
1395;1422
1396;1422
1397;1422
1398;1422
1399;1422
1400;1422
1401;1422
1402;1422
1403;1423
1404;1423
1405;1422
1406;1422
1407;1422
1408;1422
1409;1422
1410;1421
1411;1421
1412;1421
1413;1421
1414;1421
1415;1421
1416;1421
1417;1421
1418;1421
1419;1421
1420;1422
1421;1422
1422;1423
1423;1423
1424;1424
1425;1424
1426;1425
1427;1426
1428;1427
1429;1427
1430;1428
1431;1429
1432;1430
1433;1431
1434;1431
1435;1432
1436;1433
1437;1434
1438;1435
1439;1436
1440;1436
1441;1437
1442;1438
1443;1438
1444;1439
1445;1440
1446;1440
1447;1441
1448;1441
1449;1442
1450;1442
1451;1443
1452;1443
1453;1444
1454;1444
1455;1445
1456;1445
1457;1445
1458;1445
1459;1445
1460;1445
1461;1446
1462;1446
1463;1446
1464;1447
1465;1447
1466;1448
1467;1448
1468;1448
1469;1449
1470;1450
1471;1451
1472;1452
1473;1452
1474;1453
1475;1454
1476;1455
1477;1456
1478;1457
1479;1458
1480;1458
1481;1460
1482;1461
1483;1461
1484;1463
1485;1464
1486;1465
1487;1466
1488;1467
1489;1468
1490;1469
1491;1470
1492;1470
1493;1471
1494;1472
1495;1472
1496;1472
1497;1473
1498;1474
1499;1474
1500;1474
1501;1475
1502;1475
1503;1475
1504;1476
1505;1476
1506;1476
1507;1476
1508;1476
1509;1476
1510;1476
1511;1476
1512;1476
1513;1476
1514;1476
1515;1477
1516;1477
1517;1478
1518;1478
1519;1478
1520;1479
1521;1479
1522;1479
1523;1480
1524;1480
1525;1481
1526;1482
1527;1483
1528;1483
1529;1483
1530;1485
1531;1485
1532;1485
1533;1487
1534;1487
1535;1488
1536;1489
1537;1489
1538;1490
1539;1491
1540;1491
1541;1492
1542;1492
1543;1493
1544;1493
1545;1493
1546;1493
1547;1493
1548;1494
1549;1494
1550;1494
1551;1494
1552;1494
1553;1494
1554;1494
1555;1494
1556;1494
1557;1494
1558;1493
1559;1493
1560;1493
1561;1493
1562;1492
1563;1492
1564;1492
1565;1492
1566;1492
1567;1492
1568;1492
1569;1492
1570;1492
1571;1492
1572;1493
1573;1493
1574;1493
1575;1493
1576;1494
1577;1494
1578;1494
1579;1495
1580;1496
1581;1496
1582;1496
1583;1497
1584;1497
1585;1498
1586;1499
1587;1499
1588;1499
1589;1500
1590;1501
1591;1501
1592;1501
1593;1501
1594;1501
1595;1501
1596;1501
1597;1501
1598;1501
1599;1501
1600;1501
1601;1501
1602;1500
1603;1500
1604;1500
1605;1500
1606;1500
1607;1499
1608;1499
1609;1498
1610;1499
1611;1497
1612;1497
1613;1496
1614;1496
1615;1496
1616;1496
1617;1496
1618;1495
1619;1495
1620;1496
1621;1495
1622;1496
1623;1496
1624;1496
1625;1496
1626;1497
1627;1497
1628;1497
1629;1497
1630;1498
1631;1498
1632;1498
1633;1499
1634;1499
1635;1500
1636;1500
1637;1500
1638;1501
1639;1502
1640;1502
1641;1502
1642;1502
1643;1502
1644;1503
1645;1502
1646;1502
1647;1502
1648;1502
1649;1502
1650;1502
1651;1502
1652;1502
1653;1501
1654;1501
1655;1501
1656;1501
1657;1501
1658;1500
1659;1500
1660;1499
1661;1499
1662;1498
1663;1498
1664;1497
1665;1497
1666;1497
1667;1497
1668;1496
1669;1496
1670;1496
1671;1496
1672;1496
1673;1496
1674;1497
1675;1497
1676;1497
1677;1498
1678;1498
1679;1498
1680;1498
1681;1499
1682;1499
1683;1500
1684;1500
1685;1501
1686;1502
1687;1503
1688;1503
1689;1504
1690;1504
1691;1505
1692;1506
1693;1506
1694;1506
1695;1506
1696;1506
1697;1507
1698;1507
1699;1507
1700;1507
1701;1507
1702;1507
1703;1507
1704;1507
1705;1507
1706;1507
1707;1506
1708;1506
1709;1506
1710;1505
1711;1505
1712;1504
1713;1504
1714;1504
1715;1503
1716;1503
1717;1502
1718;1502
1719;1502
1720;1502
1721;1502
1722;1502
1723;1502
1724;1502
1725;1503
1726;1503
1727;1503
1728;1503
1729;1503
1730;1504
1731;1504
1732;1505
1733;1505
1734;1506
1735;1507
1736;1507
1737;1508
1738;1508
1739;1509
1740;1510
1741;1510
1742;1511
1743;1511
1744;1512
1745;1512
1746;1512
1747;1512
1748;1512
1749;1512
1750;1513
1751;1512
1752;1513
1753;1512
1754;1512
1755;1512
1756;1511
1757;1511
1758;1511
1759;1510
1760;1510
1761;1509
1762;1508
1763;1508
1764;1507
1765;1507
1766;1506
1767;1506
1768;1506
1769;1505
1770;1505
1771;1505
1772;1505
1773;1505
1774;1505
1775;1505
1776;1505
1777;1505
1778;1505
1779;1506
1780;1506
1781;1506
1782;1507
1783;1506
1784;1507
1785;1508
1786;1508
1787;1509
1788;1509
1789;1511
1790;1511
1791;1511
1792;1512
1793;1512
1794;1512
1795;1513
1796;1513
1797;1513
1798;1513
1799;1513
1800;1512
1801;1512
1802;1512
1803;1512
1804;1512
1805;1511
1806;1511
1807;1511
1808;1510
1809;1509
1810;1509
1811;1508
1812;1507
1813;1506
1814;1505
1815;1505
1816;1504
1817;1504
1818;1503
1819;1503
1820;1503
1821;1503
1822;1503
1823;1502
1824;1502
1825;1502
1826;1502
1827;1503
1828;1503
1829;1503
1830;1503
1831;1504
1832;1504
1833;1504
1834;1505
1835;1506
1836;1506
1837;1507
1838;1508
1839;1508
1840;1509
1841;1510
1842;1511
1843;1511
1844;1512
1845;1512
1846;1512
1847;1512
1848;1513
1849;1513
1850;1513
1851;1513
1852;1514
1853;1513
1854;1514
1855;1514
1856;1514
1857;1513
1858;1514
1859;1513
1860;1513
1861;1513
1862;1512
1863;1512
1864;1512
1865;1511
1866;1511
1867;1510
1868;1510
1869;1510
1870;1510
1871;1510
1872;1510
1873;1510
1874;1510
1875;1511
1876;1511
1877;1511
1878;1512
1879;1512
1880;1513
1881;1513
1882;1513
1883;1514
1884;1515
1885;1515
1886;1516
1887;1517
1888;1518
1889;1518
1890;1520
1891;1521
1892;1521
1893;1522
1894;1522
1895;1522
1896;1523
1897;1523
1898;1523
1899;1523
1900;1524
1901;1524
1902;1524
1903;1524
1904;1524
1905;1524
1906;1524
1907;1524
1908;1524
1909;1524
1910;1524
1911;1523
1912;1523
1913;1522
1914;1522
1915;1522
1916;1521
1917;1521
1918;1521
1919;1521
1920;1520
1921;1520
1922;1520
1923;1520
1924;1520
1925;1520
1926;1521
1927;1521
1928;1521
1929;1522
1930;1522
1931;1523
1932;1523
1933;1523
1934;1523
1935;1524
1936;1525
1937;1526
1938;1526
1939;1527
1940;1528
1941;1528
1942;1529
1943;1529
1944;1530
1945;1530
1946;1530
1947;1530
1948;1531
1949;1531
1950;1531
1951;1531
1952;1531
1953;1530
1954;1530
1955;1530
1956;1530
1957;1530
1958;1530
1959;1529
1960;1529
1961;1529
1962;1528
1963;1527
1964;1527
1965;1526
1966;1525
1967;1525
1968;1525
1969;1524
1970;1524
1971;1524
1972;1524
1973;1524
1974;1524
1975;1524
1976;1524
1977;1524
1978;1524
1979;1524
1980;1524
1981;1524
1982;1525
1983;1525
1984;1525
1985;1525
1986;1525
1987;1526
1988;1527
1989;1528
1990;1528
1991;1528
1992;1529
1993;1529
1994;1529
1995;1529
1996;1530
1997;1530
1998;1529
1999;1530
2000;1529
2001;1529
2002;1529
2003;1529
2004;1529
2005;1529
2006;1529
2007;1528
2008;1527
2009;1527
2010;1527
2011;1526
2012;1525
2013;1525
2014;1524
2015;1523
2016;1523
2017;1522
2018;1522
2019;1521
2020;1521
2021;1520
2022;1520
2023;1520
2024;1520
2025;1520
2026;1519
2027;1520
2028;1519
2029;1520
2030;1520
2031;1520
2032;1520
2033;1520
2034;1520
2035;1520
2036;1520
2037;1521
2038;1522
2039;1521
2040;1522
2041;1523
2042;1523
2043;1523
2044;1523
2045;1523
2046;1523
2047;1523
2048;1523
2049;1523
2050;1523
2051;1522
2052;1522
2053;1522
2054;1521
2055;1521
2056;1521
2057;1520
2058;1519
2059;1520
2060;1519
2061;1518
2062;1517
2063;1516
2064;1516
2065;1515
2066;1514
2067;1513
2068;1513
2069;1513
2070;1512
2071;1512
2072;1511
2073;1511
2074;1510
2075;1511
2076;1510
2077;1510
2078;1511
2079;1510
2080;1510
2081;1510
2082;1510
2083;1510
2084;1510
2085;1511
2086;1511
2087;1511
2088;1511
2089;1512
2090;1512
2091;1513
2092;1513
2093;1513
2094;1513
2095;1514
2096;1513
2097;1514
2098;1513
2099;1514
2100;1513
2101;1513
2102;1513
2103;1512
2104;1512
2105;1512
2106;1512
2107;1511
2108;1511
2109;1511
2110;1510
2111;1509
2112;1509
2113;1508
2114;1508
2115;1507
2116;1507
2117;1506
2118;1505
2119;1505
2120;1504
2121;1504
2122;1504
2123;1503
2124;1503
2125;1503
2126;1503
2127;1503
2128;1503
2129;1503
2130;1504
2131;1503
2132;1503
2133;1504
2134;1504
2135;1504
2136;1504
2137;1505
2138;1505
2139;1506
2140;1506
2141;1506
2142;1507
2143;1507
2144;1507
2145;1507
2146;1508
2147;1508
2148;1508
2149;1508
2150;1507
2151;1507
2152;1507
2153;1507
2154;1507
2155;1507
2156;1506
2157;1506
2158;1505
2159;1505
2160;1505
2161;1504
2162;1504
2163;1503
2164;1503
2165;1502
2166;1501
2167;1501
2168;1500
2169;1499
2170;1499
2171;1499
2172;1498
2173;1498
2174;1498
2175;1498
2176;1498
2177;1498
2178;1498
2179;1498
2180;1498
2181;1497
2182;1498
2183;1498
2184;1498
2185;1498
2186;1498
2187;1499
2188;1499
2189;1500
2190;1500
2191;1500
2192;1501
2193;1501
2194;1501
2195;1502
2196;1502
2197;1502
2198;1502
2199;1502
2200;1501
2201;1501
2202;1501
2203;1501
2204;1501
2205;1501
2206;1500
2207;1500
2208;1500
2209;1499
2210;1499
2211;1499
2212;1498
2213;1498
2214;1497
2215;1496
2216;1496
2217;1496
2218;1495
2219;1494
2220;1493
2221;1493
2222;1493
2223;1492
2224;1492
2225;1492
2226;1492
2227;1492
2228;1492
2229;1492
2230;1492
2231;1492
2232;1492
2233;1492
2234;1492
2235;1492
2236;1493
2237;1493
2238;1493
2239;1494
2240;1494
2241;1495
2242;1495
2243;1495
2244;1496
2245;1495
2246;1496
2247;1496
2248;1496
2249;1496
2250;1496
2251;1496
2252;1495
2253;1495
2254;1495
2255;1495
2256;1495
2257;1494
2258;1494
2259;1494
2260;1494
2261;1493
2262;1493
2263;1492
2264;1491
2265;1491
2266;1490
2267;1489
2268;1489
2269;1488
2270;1488
2271;1487
2272;1487
2273;1487
2274;1487
2275;1486
2276;1486
2277;1487
2278;1486
2279;1487
2280;1487
2281;1487
2282;1487
2283;1487
2284;1487
2285;1487
2286;1487
2287;1488
2288;1488
2289;1489
2290;1489
2291;1490
2292;1490
2293;1490
2294;1491
2295;1491
2296;1492
2297;1492
2298;1492
2299;1492
2300;1492
2301;1492
2302;1492
2303;1492
2304;1492
2305;1492
2306;1492
2307;1491
2308;1491
2309;1491
2310;1490
2311;1490
2312;1490
2313;1489
2314;1489
2315;1488
2316;1488
2317;1487
2318;1487
2319;1486
2320;1486
2321;1485
2322;1485
2323;1485
2324;1485
2325;1485
2326;1484
2327;1484
2328;1485
2329;1485
2330;1485
2331;1485
2332;1485
2333;1485
2334;1485
2335;1486
2336;1486
2337;1486
2338;1487
2339;1487
2340;1487
2341;1488
2342;1488
2343;1489
2344;1489
2345;1490
2346;1490
2347;1490
2348;1491
2349;1491
2350;1491
2351;1491
2352;1491
2353;1491
2354;1491
2355;1491
2356;1491
2357;1490
2358;1490
2359;1490
2360;1490
2361;1489
2362;1489
2363;1489
2364;1489
2365;1488
2366;1487
2367;1487
2368;1486
2369;1486
2370;1485
2371;1485
2372;1485
2373;1485
2374;1484
2375;1484
2376;1484
2377;1484
2378;1484
2379;1484
2380;1484
2381;1484
2382;1484
2383;1484
2384;1484
2385;1485
2386;1485
2387;1486
2388;1486
2389;1487
2390;1487
2391;1487
2392;1488
2393;1489
2394;1489
2395;1490
2396;1490
2397;1491
2398;1491
2399;1492
2400;1492
2401;1492
2402;1492
2403;1492
2404;1492
2405;1492
2406;1492
2407;1492
2408;1492
2409;1492
2410;1491
2411;1491
2412;1491
2413;1491
2414;1490
2415;1489
2416;1489
2417;1489
2418;1488
2419;1487
2420;1487
2421;1486
2422;1485
2423;1486
2424;1485
2425;1485
2426;1485
2427;1485
2428;1484
2429;1484
2430;1485
2431;1485
2432;1485
2433;1485
2434;1485
2435;1486
2436;1486
2437;1486
2438;1487
2439;1487
2440;1488
2441;1488
2442;1489
2443;1489
2444;1489
2445;1491
2446;1491
2447;1491
2448;1492
2449;1492
2450;1492
2451;1493
2452;1493
2453;1493
2454;1493
2455;1493
2456;1493
2457;1493
2458;1493
2459;1493
2460;1493
2461;1493
2462;1493
2463;1493
2464;1492
2465;1492
2466;1491
2467;1491
2468;1490
2469;1489
2470;1489
2471;1489
2472;1488
2473;1488
2474;1487
2475;1487
2476;1487
2477;1487
2478;1487
2479;1487
2480;1487
2481;1487
2482;1487
2483;1487
2484;1488
2485;1488
2486;1488
2487;1489
2488;1489
2489;1489
2490;1489
2491;1490
2492;1491
2493;1491
2494;1493
2495;1493
2496;1494
2497;1495
2498;1495
2499;1495
2500;1496
2501;1497
2502;1497
2503;1497
2504;1497
2505;1497
2506;1498
2507;1498
2508;1498
2509;1497
2510;1498
2511;1497
2512;1498
2513;1498
2514;1497
2515;1497
2516;1497
2517;1496
2518;1496
2519;1495
2520;1494
2521;1494
2522;1494
2523;1493
2524;1493
2525;1493
2526;1492
2527;1492
2528;1492
2529;1492
2530;1492
2531;1492
2532;1492
2533;1493
2534;1493
2535;1493
2536;1493
2537;1494
2538;1494
2539;1494
2540;1495
2541;1496
2542;1496
2543;1497
2544;1498
2545;1498
2546;1499
2547;1500
2548;1500
2549;1501
2550;1501
2551;1502
2552;1502
2553;1502
2554;1502
2555;1503
2556;1503
2557;1503
2558;1503
2559;1503
2560;1503
2561;1503
2562;1503
2563;1502
2564;1502
2565;1502
2566;1502
2567;1501
2568;1500
2569;1500
2570;1499
2571;1499
2572;1498
2573;1498
2574;1498
2575;1497
2576;1497
2577;1497
2578;1497
2579;1497
2580;1497
2581;1497
2582;1497
2583;1497
2584;1497
2585;1498
2586;1498
2587;1498
2588;1498
2589;1499
2590;1499
2591;1499
2592;1500
2593;1500
2594;1501
2595;1501
2596;1502
2597;1502
2598;1502
2599;1503
2600;1503
2601;1503
2602;1504
2603;1503
2604;1503
2605;1503
2606;1503
2607;1503
2608;1503
2609;1503
2610;1503
2611;1502
2612;1502
2613;1502
2614;1502
2615;1501
2616;1501
2617;1500
2618;1500
2619;1499
2620;1499
2621;1498
2622;1498
2623;1498
2624;1497
2625;1496
2626;1496
2627;1496
2628;1496
2629;1496
2630;1496
2631;1496
2632;1496
2633;1496
2634;1496
2635;1496
2636;1496
2637;1496
2638;1497
2639;1497
2640;1498
2641;1498
2642;1498
2643;1499
2644;1499
2645;1500
2646;1500
2647;1500
2648;1501
2649;1501
2650;1501
2651;1502
2652;1502
2653;1502
2654;1502
2655;1502
2656;1502
2657;1502
2658;1502
2659;1502
2660;1502
2661;1501
2662;1501
2663;1501
2664;1501
2665;1500
2666;1500
2667;1500
2668;1499
2669;1498
2670;1498
2671;1497
2672;1497
2673;1496
2674;1496
2675;1495
2676;1495
2677;1495
2678;1495
2679;1495
2680;1495
2681;1495
2682;1494
2683;1495
2684;1495
2685;1495
2686;1495
2687;1495
2688;1496
2689;1496
2690;1496
2691;1496
2692;1496
2693;1496
2694;1498
2695;1498
2696;1498
2697;1499
2698;1499
2699;1499
2700;1499
2701;1500
2702;1500
2703;1500
2704;1500
2705;1500
2706;1500
2707;1500
2708;1499
2709;1499
2710;1499
2711;1499
2712;1499
2713;1499
2714;1498
2715;1498
2716;1498
2717;1497
2718;1497
2719;1496
2720;1495
2721;1495
2722;1494
2723;1494
2724;1493
2725;1493
2726;1493
2727;1493
2728;1492
2729;1492
2730;1492
2731;1492
2732;1492
2733;1492
2734;1492
2735;1493
2736;1492
2737;1493
2738;1493
2739;1493
2740;1494
2741;1494
2742;1494
2743;1495
2744;1495
2745;1495
2746;1496
2747;1496
2748;1497
2749;1497
2750;1497
2751;1497
2752;1498
2753;1498
2754;1497
2755;1498
2756;1498
2757;1498
2758;1497
2759;1497
2760;1497
2761;1497
2762;1497
2763;1497
2764;1497
2765;1497
2766;1496
2767;1495
2768;1495
2769;1494
2770;1494
2771;1494
2772;1493
2773;1493
2774;1492
2775;1492
2776;1492
2777;1491
2778;1491
2779;1492
2780;1491
2781;1491
2782;1491
2783;1492
2784;1491
2785;1492
2786;1492
2787;1492
2788;1492
2789;1492
2790;1493
2791;1493
2792;1493
2793;1494
2794;1494
2795;1494
2796;1495
2797;1495
2798;1495
2799;1496
2800;1496
2801;1497
2802;1497
2803;1497
2804;1497
2805;1497
2806;1497
2807;1497
2808;1497
2809;1497
2810;1497
2811;1497
2812;1496
2813;1496
2814;1496
2815;1496
2816;1496
2817;1496
2818;1495
2819;1495
2820;1494
2821;1494
2822;1493
2823;1493
2824;1493
2825;1492
2826;1492
2827;1492
2828;1492
2829;1492
2830;1492
2831;1492
2832;1492
2833;1492
2834;1492
2835;1492
2836;1493
2837;1493
2838;1493
2839;1494
2840;1494
2841;1494
2842;1495
2843;1495
2844;1495
2845;1496
2846;1497
2847;1497
2848;1498
2849;1498
2850;1498
2851;1498
2852;1499
2853;1499
2854;1499
2855;1499
2856;1499
2857;1499
2858;1499
2859;1499
2860;1499
2861;1499
2862;1498
2863;1498
2864;1498
2865;1498
2866;1497
2867;1498
2868;1497
2869;1496
2870;1496
2871;1496
2872;1495
2873;1495
2874;1494
2875;1494
2876;1494
2877;1494
2878;1494
2879;1493
2880;1493
2881;1494
2882;1493
2883;1493
2884;1494
2885;1494
2886;1494
2887;1494
2888;1495
2889;1495
2890;1495
2891;1496
2892;1495
2893;1496
2894;1497
2895;1497
2896;1497
2897;1498
2898;1498
2899;1499
2900;1499
2901;1500
2902;1499
2903;1499
2904;1500
2905;1500
2906;1500
2907;1500
2908;1500
2909;1499
2910;1500
2911;1499
2912;1499
2913;1499
2914;1499
2915;1499
2916;1499
2917;1498
2918;1498
2919;1497
2920;1497
2921;1497
2922;1496
2923;1496
2924;1495
2925;1495
2926;1495
2927;1494
2928;1494
2929;1494
2930;1494
2931;1494
2932;1494
2933;1494
2934;1494
2935;1494
2936;1494
2937;1494
2938;1495
2939;1494
2940;1495
2941;1495
2942;1495
2943;1495
2944;1496
2945;1497
2946;1497
2947;1498
2948;1498
2949;1498
2950;1498
2951;1499
2952;1499
2953;1499
2954;1499
2955;1499
2956;1499
2957;1499
2958;1499
2959;1499
2960;1498
2961;1499
2962;1498
2963;1498
2964;1498
2965;1498
2966;1497
2967;1497
2968;1497
2969;1496
2970;1495
2971;1495
2972;1495
2973;1494
2974;1494
2975;1493
2976;1493
2977;1493
2978;1492
2979;1492
2980;1492
2981;1492
2982;1491
2983;1492
2984;1492
2985;1492
2986;1492
2987;1492
2988;1492
2989;1492
2990;1493
2991;1492
2992;1493
2993;1493
2994;1493
2995;1493
2996;1494
2997;1494
2998;1495
2999;1495
3000;1496
3001;1496
3002;1496
3003;1496
3004;1496
3005;1496
3006;1496
3007;1496
3008;1496
3009;1496
3010;1496
3011;1496
3012;1496
3013;1495
3014;1495
3015;1495
3016;1495
3017;1494
3018;1494
3019;1493
3020;1493
3021;1493
3022;1492
3023;1492
3024;1491
3025;1491
3026;1490
3027;1490
3028;1489
3029;1489
3030;1489
3031;1489
3032;1489
3033;1489
3034;1489
3035;1489
3036;1489
3037;1489
3038;1489
3039;1489
3040;1489
3041;1489
3042;1490
3043;1490
3044;1490
3045;1490
3046;1491
3047;1491
3048;1491
3049;1492
3050;1493
3051;1493
3052;1494
3053;1494
3054;1494
3055;1494
3056;1494
3057;1495
3058;1495
3059;1495
3060;1495
3061;1494
3062;1494
3063;1494
3064;1494
3065;1494
3066;1493
3067;1493
3068;1494
3069;1493
3070;1492
3071;1492
3072;1491
3073;1491
3074;1490
3075;1490
3076;1489
3077;1489
3078;1488
3079;1488
3080;1488
3081;1487
3082;1487
3083;1487
3084;1487
3085;1487
3086;1487
3087;1486
3088;1487
3089;1487
3090;1487
3091;1487
3092;1488
3093;1487
3094;1487
3095;1488
3096;1488
3097;1489
3098;1489
3099;1489
3100;1490
3101;1490
3102;1490
3103;1491
3104;1491
3105;1491
3106;1491
3107;1491
3108;1491
3109;1491
3110;1491
3111;1491
3112;1491
3113;1490
3114;1490
3115;1490
3116;1490
3117;1490
3118;1489
3119;1489
3120;1489
3121;1488
3122;1488
3123;1487
3124;1486
3125;1486
3126;1486
3127;1485
3128;1485
3129;1485
3130;1484
3131;1484
3132;1484
3133;1484
3134;1484
3135;1484
3136;1484
3137;1484
3138;1484
3139;1485
3140;1485
3141;1485
3142;1485
3143;1485
3144;1486
3145;1486
3146;1486
3147;1487
3148;1488
3149;1488
3150;1488
3151;1489
3152;1489
3153;1489
3154;1490
3155;1490
3156;1490
3157;1490
3158;1490
3159;1490
3160;1490
3161;1490
3162;1490
3163;1489
3164;1489
3165;1489
3166;1489
3167;1489
3168;1489
3169;1488
3170;1488
3171;1488
3172;1487
3173;1487
3174;1486
3175;1486
3176;1486
3177;1485
3178;1485
3179;1484
3180;1484
3181;1484
3182;1483
3183;1484
3184;1483
3185;1484
3186;1484
3187;1484
3188;1484
3189;1484
3190;1484
3191;1484
3192;1484
3193;1485
3194;1485
3195;1485
3196;1486
3197;1486
3198;1487
3199;1487
3200;1488
3201;1488
3202;1488
3203;1489
3204;1489
3205;1489
3206;1489
3207;1490
3208;1490
3209;1490
3210;1490
3211;1490
3212;1490
3213;1490
3214;1489
3215;1490
3216;1489
3217;1489
3218;1489
3219;1489
3220;1488
3221;1488
3222;1488
3223;1487
3224;1486
3225;1486
3226;1486
3227;1485
3228;1485
3229;1485
3230;1484
3231;1484
3232;1484
3233;1484
3234;1484
3235;1484
3236;1485
3237;1485
3238;1484
3239;1485
3240;1485
3241;1485
3242;1485
3243;1486
3244;1486
3245;1486
3246;1487
3247;1487
3248;1488
3249;1489
3250;1489
3251;1489
3252;1490
3253;1490
3254;1491
3255;1490
3256;1491
3257;1491
3258;1491
3259;1492
3260;1491
3261;1491
3262;1491
3263;1491
3264;1491
3265;1491
3266;1491
3267;1491
3268;1491
3269;1490
3270;1490
3271;1490
3272;1489
3273;1489
3274;1489
3275;1488
3276;1488
3277;1487
3278;1487
3279;1487
3280;1486
3281;1486
3282;1486
3283;1486
3284;1486
3285;1486
3286;1486
3287;1486
3288;1486
3289;1486
3290;1487
3291;1487
3292;1487
3293;1488
3294;1488
3295;1488
3296;1488
3297;1489
3298;1489
3299;1490
3300;1490
3301;1491
3302;1492
3303;1492
3304;1492
3305;1492
3306;1493
3307;1493
3308;1493
3309;1493
3310;1493
3311;1493
3312;1493
3313;1493
3314;1493
3315;1493
3316;1493
3317;1493
3318;1492
3319;1492
3320;1492
3321;1492
3322;1491
3323;1491
3324;1490
3325;1490
3326;1489
3327;1489
3328;1489
3329;1488
3330;1488
3331;1488
3332;1488
3333;1488
3334;1488
3335;1488
3336;1488
3337;1488
3338;1488
3339;1488
3340;1488
3341;1489
3342;1489
3343;1489
3344;1490
3345;1490
3346;1490
3347;1490
3348;1491
3349;1491
3350;1492
3351;1492
3352;1493
3353;1493
3354;1494
3355;1494
3356;1494
3357;1494
3358;1494
3359;1495
3360;1494
3361;1494
3362;1494
3363;1494
3364;1494
3365;1494
3366;1494
3367;1494
3368;1494
3369;1493
3370;1493
3371;1493
3372;1492
3373;1492
3374;1491
3375;1491
3376;1490
3377;1490
3378;1489
3379;1489
3380;1489
3381;1489
3382;1488
3383;1488
3384;1488
3385;1488
3386;1488
3387;1488
3388;1488
3389;1488
3390;1488
3391;1488
3392;1489
3393;1489
3394;1489
3395;1489
3396;1489
3397;1490
3398;1491
3399;1491
3400;1492
3401;1492
3402;1492
3403;1493
3404;1493
3405;1494
3406;1494
3407;1494
3408;1494
3409;1495
3410;1495
3411;1495
3412;1495
3413;1495
3414;1495
3415;1494
3416;1494
3417;1494
3418;1494
3419;1494
3420;1494
3421;1493
3422;1493
3423;1492
3424;1492
3425;1492
3426;1491
3427;1491
3428;1490
3429;1489
3430;1489
3431;1489
3432;1489
3433;1488
3434;1488
3435;1488
3436;1488
3437;1488
3438;1489
3439;1489
3440;1489
3441;1489
3442;1489
3443;1490
3444;1490
3445;1490
3446;1491
3447;1491
3448;1491
3449;1492
3450;1493
3451;1493
3452;1493
3453;1494
3454;1495
3455;1495
3456;1495
3457;1495
3458;1495
3459;1496
3460;1496
3461;1496
3462;1496
3463;1496
3464;1496
3465;1496
3466;1496
3467;1496
3468;1496
3469;1495
3470;1495
3471;1495
3472;1495
3473;1494
3474;1494
3475;1493
3476;1492
3477;1492
3478;1492
3479;1491
3480;1491
3481;1491
3482;1490
3483;1490
3484;1490
3485;1490
3486;1490
3487;1490
3488;1490
3489;1490
3490;1490
3491;1491
3492;1491
3493;1491
3494;1491
3495;1491
3496;1492
3497;1492
3498;1492
3499;1493
3500;1494
3501;1494
3502;1495
3503;1495
3504;1495
3505;1496
3506;1496
3507;1497
3508;1497
3509;1497
3510;1497
3511;1497
3512;1497
3513;1497
3514;1497
3515;1497
3516;1497
3517;1497
3518;1497
3519;1496
3520;1496
3521;1496
3522;1496
3523;1496
3524;1495
3525;1495
3526;1494
3527;1494
3528;1493
3529;1493
3530;1493
3531;1492
3532;1492
3533;1492
3534;1491
3535;1491
3536;1491
3537;1491
3538;1491
3539;1491
3540;1492
3541;1492
3542;1492
3543;1492
3544;1492
3545;1493
3546;1493
3547;1493
3548;1494
3549;1494
3550;1494
3551;1495
3552;1495
3553;1495
3554;1496
3555;1497
3556;1497
3557;1497
3558;1498
3559;1498
3560;1498
3561;1499
3562;1498
3563;1498
3564;1498
3565;1498
3566;1498
3567;1498
3568;1498
3569;1498
3570;1498
3571;1497
3572;1497
3573;1497
3574;1496
3575;1496
3576;1495
3577;1495
3578;1494
3579;1494
3580;1493
3581;1492
3582;1492
3583;1492
3584;1491
3585;1491
3586;1491
3587;1491
3588;1491
3589;1491
3590;1491
3591;1491
3592;1491
3593;1491
3594;1491
3595;1492
3596;1492
3597;1492
3598;1492
3599;1492
3600;1493
3601;1493
3602;1494
3603;1494
3604;1495
3605;1495
3606;1495
3607;1496
3608;1496
3609;1496
3610;1496
3611;1497
3612;1497
3613;1496
3614;1497
3615;1496
3616;1496
3617;1496
3618;1496
3619;1496
3620;1495
3621;1495
3622;1495
3623;1495
3624;1495
3625;1494
3626;1493
3627;1493
3628;1492
3629;1492
3630;1491
3631;1490
3632;1490
3633;1490
3634;1489
3635;1489
3636;1489
3637;1489
3638;1489
3639;1488
3640;1488
3641;1488
3642;1489
3643;1489
3644;1489
3645;1489
3646;1489
3647;1490
3648;1490
3649;1490
3650;1490
3651;1491
3652;1491
3653;1492
3654;1492
3655;1493
3656;1493
3657;1494
3658;1494
3659;1494
3660;1494
3661;1495
3662;1495
3663;1495
3664;1495
3665;1495
3666;1495
3667;1494
3668;1494
3669;1494
3670;1494
3671;1494
3672;1494
3673;1493
3674;1493
3675;1492
3676;1491
3677;1491
3678;1491
3679;1490
3680;1489
3681;1489
3682;1488
3683;1488
3684;1488
3685;1487
3686;1487
3687;1487
3688;1487
3689;1487
3690;1487
3691;1487
3692;1487
3693;1487
3694;1487
3695;1487
3696;1487
3697;1488
3698;1487
3699;1488
3700;1488
3701;1489
3702;1489
3703;1490
3704;1490
3705;1491
3706;1492
3707;1492
3708;1492
3709;1493
3710;1493
3711;1494
3712;1493
3713;1494
3714;1494
3715;1494
3716;1494
3717;1494
3718;1494
3719;1493
3720;1493
3721;1493
3722;1493
3723;1493
3724;1492
3725;1492
3726;1491
3727;1491
3728;1490
3729;1489
3730;1489
3731;1488
3732;1488
3733;1487
3734;1487
3735;1487
3736;1487
3737;1486
3738;1486
3739;1486
3740;1486
3741;1486
3742;1486
3743;1486
3744;1486
3745;1486
3746;1487
3747;1487
3748;1487
3749;1487
3750;1488
3751;1488
3752;1489
3753;1489
3754;1490
3755;1491
3756;1491
3757;1491
3758;1492
3759;1492
3760;1492
3761;1493
3762;1493
3763;1493
3764;1493
3765;1493
3766;1493
3767;1492
3768;1492
3769;1493
3770;1492
3771;1492
3772;1492
3773;1492
3774;1492
3775;1491
3776;1491
3777;1490
3778;1489
3779;1489
3780;1488
3781;1488
3782;1487
3783;1487
3784;1486
3785;1486
3786;1486
3787;1486
3788;1486
3789;1486
3790;1486
3791;1486
3792;1486
3793;1486
3794;1486
3795;1486
3796;1486
3797;1486
3798;1487
3799;1487
3800;1487
3801;1488
3802;1488
3803;1489
3804;1490
3805;1490
3806;1491
3807;1491
3808;1491
3809;1492
3810;1492
3811;1492
3812;1493
3813;1493
3814;1493
3815;1493
3816;1493
3817;1493
3818;1493
3819;1493
3820;1492
3821;1492
3822;1492
3823;1492
3824;1491
3825;1491
3826;1490
3827;1490
3828;1489
3829;1489
3830;1488
3831;1488
3832;1487
3833;1486
3834;1486
3835;1485
3836;1485
3837;1485
3838;1485
3839;1485
3840;1485
3841;1485
3842;1484
3843;1484
3844;1485
3845;1485
3846;1485
3847;1485
3848;1486
3849;1486
3850;1486
3851;1486
3852;1487
3853;1487
3854;1488
3855;1488
3856;1489
3857;1490
3858;1490
3859;1490
3860;1491
3861;1491
3862;1491
3863;1491
3864;1491
3865;1491
3866;1491
3867;1491
3868;1491
3869;1491
3870;1491
3871;1490
3872;1490
3873;1490
3874;1490
3875;1489
3876;1489
3877;1489
3878;1488
3879;1487
3880;1487
3881;1486
3882;1486
3883;1485
3884;1485
3885;1484
3886;1484
3887;1484
3888;1483
3889;1483
3890;1483
3891;1483
3892;1483
3893;1483
3894;1483
3895;1483
3896;1484
3897;1483
3898;1484
3899;1484
3900;1485
3901;1485
3902;1485
3903;1486
3904;1487
3905;1487
3906;1488
3907;1488
3908;1488
3909;1489
3910;1489
3911;1489
3912;1489
3913;1489
3914;1490
3915;1490
3916;1490
3917;1490
3918;1490
3919;1489
3920;1489
3921;1489
3922;1489
3923;1489
3924;1488
3925;1488
3926;1488
3927;1487
3928;1487
3929;1486
3930;1486
3931;1485
3932;1484
3933;1484
3934;1484
3935;1484
3936;1483
3937;1483
3938;1483
3939;1483
3940;1483
3941;1483
3942;1483
3943;1483
3944;1483
3945;1483
3946;1484
3947;1484
3948;1484
3949;1485
3950;1485
3951;1485
3952;1486
3953;1486
3954;1487
3955;1487
3956;1487
3957;1488
3958;1489
3959;1489
3960;1489
3961;1489
3962;1490
3963;1489
3964;1490
3965;1490
3966;1490
3967;1490
3968;1490
3969;1490
3970;1489
3971;1489
3972;1489
3973;1489
3974;1489
3975;1488
3976;1488
3977;1488
3978;1487
3979;1487
3980;1486
3981;1486
3982;1485
3983;1485
3984;1484
3985;1484
3986;1484
3987;1484
3988;1484
3989;1483
3990;1483
3991;1483
3992;1484
3993;1484
3994;1484
3995;1485
3996;1484
3997;1485
3998;1485
3999;1485
4000;1486
4001;1486
4002;1487
4003;1487
4004;1488
4005;1488
4006;1489
4007;1489
4008;1490
4009;1490
4010;1490
4011;1491
4012;1491
4013;1492
4014;1492
4015;1492
4016;1492
4017;1492
4018;1492
4019;1492
4020;1492
4021;1492
4022;1492
4023;1492
4024;1491
4025;1491
4026;1491
4027;1490
4028;1490
4029;1489
4030;1489
4031;1488
4032;1488
4033;1488
4034;1487
4035;1486
4036;1486
4037;1486
4038;1486
4039;1486
4040;1485
4041;1485
4042;1486
4043;1486
4044;1486
4045;1485
4046;1486
4047;1487
4048;1487
4049;1487
4050;1487
4051;1488
4052;1488
4053;1488
4054;1489
4055;1489
4056;1490
4057;1491
4058;1491
4059;1492
4060;1492
4061;1493
4062;1493
4063;1493
4064;1493
4065;1494
4066;1493
4067;1493
4068;1493
4069;1493
4070;1493
4071;1492
4072;1493
4073;1492
4074;1492
4075;1492
4076;1491
4077;1491
4078;1490
4079;1490
4080;1490
4081;1489
4082;1489
4083;1488
4084;1487
4085;1487
4086;1487
4087;1487
4088;1487
4089;1486
4090;1487
4091;1486
4092;1486
4093;1487
4094;1487
4095;1487
4096;1487
4097;1488
4098;1488
4099;1488
4100;1489
4101;1489
4102;1489
4103;1490
4104;1490
4105;1491
4106;1491
4107;1492
4108;1492
4109;1493
4110;1494
4111;1493
4112;1494
4113;1494
4114;1494
4115;1494
4116;1494
4117;1494
4118;1494
4119;1493
4120;1493
4121;1493
4122;1493
4123;1493
4124;1492
4125;1492
4126;1491
4127;1491
4128;1491
4129;1490
4130;1490
4131;1489
4132;1488
4133;1488
4134;1488
4135;1487
4136;1487
4137;1487
4138;1487
4139;1487
4140;1487
4141;1486
4142;1487
4143;1487
4144;1487
4145;1487
4146;1487
4147;1487
4148;1488
4149;1488
4150;1488
4151;1489
4152;1489
4153;1490
4154;1490
4155;1490
4156;1491
4157;1492
4158;1492
4159;1493
4160;1493
4161;1494
4162;1494
4163;1495
4164;1494
4165;1494
4166;1495
4167;1495
4168;1495
4169;1495
4170;1495
4171;1495
4172;1494
4173;1494
4174;1494
4175;1494
4176;1494
4177;1493
4178;1493
4179;1493
4180;1492
4181;1492
4182;1491
4183;1490
4184;1490
4185;1490
4186;1489
4187;1489
4188;1489
4189;1489
4190;1488
4191;1488
4192;1489
4193;1489
4194;1489
4195;1489
4196;1489
4197;1489
4198;1490
4199;1490
4200;1491
4201;1491
4202;1492
4203;1492
4204;1492
4205;1493
4206;1493
4207;1494
4208;1495
4209;1495
4210;1496
4211;1496
4212;1496
4213;1497
4214;1497
4215;1497
4216;1497
4217;1497
4218;1497
4219;1497
4220;1497
4221;1497
4222;1496
4223;1496
4224;1495
4225;1496
4226;1496
4227;1495
4228;1495
4229;1494
4230;1494
4231;1494
4232;1493
4233;1493
4234;1492
4235;1492
4236;1491
4237;1491
4238;1491
4239;1491
4240;1491
4241;1491
4242;1492
4243;1491
4244;1492
4245;1492
4246;1492
4247;1492
4248;1493
4249;1493
4250;1493
4251;1494
4252;1494
4253;1495
4254;1495
4255;1496
4256;1496
4257;1497
4258;1498
4259;1498
4260;1499
4261;1499
4262;1499
4263;1500
4264;1500
4265;1500
4266;1500
4267;1500
4268;1500
4269;1500
4270;1500
4271;1500
4272;1500
4273;1500
4274;1499
4275;1499
4276;1499
4277;1499
4278;1498
4279;1498
4280;1498
4281;1497
4282;1497
4283;1497
4284;1496
4285;1496
4286;1496
4287;1495
4288;1495
4289;1496
4290;1496
4291;1495
4292;1495
4293;1495
4294;1496
4295;1496
4296;1497
4297;1497
4298;1497
4299;1498
4300;1498
4301;1498
4302;1498
4303;1499
4304;1499
4305;1500
4306;1500
4307;1501
4308;1501
4309;1501
4310;1502
4311;1502
4312;1502
4313;1502
4314;1502
4315;1502
4316;1502
4317;1502
4318;1502
4319;1502
4320;1502
4321;1502
4322;1501
4323;1501
4324;1501
4325;1500
4326;1500
4327;1500
4328;1500
4329;1499
4330;1499
4331;1498
4332;1498
4333;1498
4334;1497
4335;1498
4336;1497
4337;1497
4338;1497
4339;1497
4340;1497
4341;1497
4342;1497
4343;1498
4344;1498
4345;1498
4346;1499
4347;1499
4348;1499
4349;1499
4350;1500
4351;1500
4352;1501
4353;1502
4354;1502
4355;1502
4356;1503
4357;1503
4358;1503
4359;1504
4360;1504
4361;1504
4362;1505
4363;1505
4364;1505
4365;1505
4366;1505
4367;1505
4368;1505
4369;1505
4370;1504
4371;1504
4372;1504
4373;1504
4374;1503
4375;1503
4376;1502
4377;1502
4378;1502
4379;1502
4380;1501
4381;1501
4382;1500
4383;1500
4384;1500
4385;1499
4386;1499
4387;1499
4388;1499
4389;1499
4390;1499
4391;1499
4392;1499
4393;1499
4394;1499
4395;1499
4396;1500
4397;1500
4398;1500
4399;1501
4400;1501
4401;1501
4402;1502
4403;1502
4404;1503
4405;1503
4406;1504
4407;1504
4408;1504
4409;1505
4410;1505
4411;1505
4412;1506
4413;1506
4414;1506
4415;1506
4416;1506
4417;1506
4418;1506
4419;1506
4420;1505
4421;1505
4422;1505
4423;1504
4424;1504
4425;1504
4426;1504
4427;1504
4428;1503
4429;1502
4430;1502
4431;1502
4432;1501
4433;1501
4434;1501
4435;1500
4436;1500
4437;1500
4438;1500
4439;1499
4440;1500
4441;1500
4442;1500
4443;1500
4444;1500
4445;1501
4446;1501
4447;1501
4448;1502
4449;1502
4450;1502
4451;1503
4452;1503
4453;1504
4454;1504
4455;1504
4456;1505
4457;1505
4458;1506
4459;1506
4460;1506
4461;1507
4462;1507
4463;1507
4464;1507
4465;1507
4466;1507
4467;1507
4468;1507
4469;1507
4470;1506
4471;1506
4472;1506
4473;1505
4474;1505
4475;1505
4476;1505
4477;1504
4478;1504
4479;1504
4480;1503
4481;1503
4482;1502
4483;1502
4484;1501
4485;1501
4486;1501
4487;1501
4488;1500
4489;1501
4490;1500
4491;1500
4492;1500
4493;1501
4494;1501
4495;1501
4496;1501
4497;1502
4498;1502
4499;1502
4500;1503
4501;1503
4502;1503
4503;1504
4504;1505
4505;1505
4506;1505
4507;1506
4508;1506
4509;1507
4510;1507
4511;1507
4512;1508
4513;1508
4514;1507
4515;1508
4516;1507
4517;1507
4518;1507
4519;1507
4520;1507
4521;1507
4522;1507
4523;1506
4524;1506
4525;1505
4526;1505
4527;1504
4528;1504
4529;1504
4530;1503
4531;1503
4532;1503
4533;1502
4534;1502
4535;1502
4536;1501
4537;1501
4538;1501
4539;1501
4540;1501
4541;1501
4542;1501
4543;1502
4544;1502
4545;1502
4546;1503
4547;1503
4548;1503
4549;1504
4550;1504
4551;1504
4552;1505
4553;1505
4554;1506
4555;1506
4556;1507
4557;1507
4558;1507
4559;1508
4560;1508
4561;1508
4562;1509
4563;1509
4564;1509
4565;1509
4566;1509
4567;1509
4568;1509
4569;1509
4570;1509
4571;1509
4572;1508
4573;1508
4574;1507
4575;1507
4576;1507
4577;1506
4578;1506
4579;1506
4580;1505
4581;1505
4582;1504
4583;1504
4584;1504
4585;1503
4586;1503
4587;1502
4588;1502
4589;1502
4590;1502
4591;1502
4592;1502
4593;1503
4594;1503
4595;1503
4596;1503
4597;1504
4598;1504
4599;1504
4600;1505
4601;1505
4602;1505
4603;1506
4604;1506
4605;1507
4606;1507
4607;1507
4608;1508
4609;1509
4610;1509
4611;1510
4612;1509
4613;1510
4614;1510
4615;1510
4616;1510
4617;1510
4618;1511
4619;1510
4620;1510
4621;1510
4622;1510
4623;1510
4624;1509
4625;1509
4626;1509
4627;1509
4628;1508
4629;1508
4630;1508
4631;1507
4632;1507
4633;1507
4634;1506
4635;1506
4636;1506
4637;1505
4638;1505
4639;1505
4640;1505
4641;1504
4642;1504
4643;1504
4644;1505
4645;1505
4646;1505
4647;1505
4648;1505
4649;1505
4650;1506
4651;1506
4652;1507
4653;1506
4654;1507
4655;1507
4656;1508
4657;1508
4658;1509
4659;1509
4660;1509
4661;1510
4662;1510
4663;1510
4664;1510
4665;1511
4666;1510
4667;1511
4668;1511
4669;1511
4670;1510
4671;1510
4672;1510
4673;1510
4674;1510
4675;1510
4676;1509
4677;1509
4678;1508
4679;1508
4680;1508
4681;1507
4682;1507
4683;1506
4684;1506
4685;1506
4686;1505
4687;1505
4688;1505
4689;1504
4690;1504
4691;1504
4692;1504
4693;1504
4694;1504
4695;1504
4696;1504
4697;1504
4698;1505
4699;1505
4700;1505
4701;1505
4702;1506
4703;1506
4704;1506
4705;1507
4706;1507
4707;1507
4708;1508
4709;1508
4710;1508
4711;1509
4712;1509
4713;1510
4714;1509
4715;1510
4716;1510
4717;1510
4718;1510
4719;1510
4720;1509
4721;1509
4722;1509
4723;1509
4724;1508
4725;1508
4726;1508
4727;1507
4728;1507
4729;1507
4730;1506
4731;1506
4732;1506
4733;1505
4734;1505
4735;1504
4736;1504
4737;1503
4738;1503
4739;1503
4740;1502
4741;1503
4742;1502
4743;1502
4744;1502
4745;1502
4746;1503
4747;1503
4748;1503
4749;1503
4750;1503
4751;1504
4752;1504
4753;1504
4754;1504
4755;1505
4756;1505
4757;1505
4758;1506
4759;1506
4760;1507
4761;1507
4762;1508
4763;1508
4764;1508
4765;1508
4766;1508
4767;1509
4768;1509
4769;1509
4770;1509
4771;1509
4772;1509
4773;1508
4774;1508
4775;1508
4776;1507
4777;1507
4778;1507
4779;1506
4780;1506
4781;1505
4782;1505
4783;1505
4784;1504
4785;1504
4786;1503
4787;1503
4788;1503
4789;1502
4790;1502
4791;1502
4792;1501
4793;1501
4794;1501
4795;1501
4796;1501
4797;1502
4798;1502
4799;1502
4800;1502
4801;1503
4802;1503
4803;1504
4804;1504
4805;1504
4806;1505
4807;1505
4808;1506
4809;1506
4810;1507
4811;1507
4812;1508
4813;1508
4814;1509
4815;1509
4816;1509
4817;1510
4818;1509
4819;1510
4820;1509
4821;1510
4822;1509
4823;1509
4824;1509
4825;1509
4826;1509
4827;1508
4828;1508
4829;1508
4830;1508
4831;1507
4832;1507
4833;1506
4834;1505
4835;1504
4836;1504
4837;1503
4838;1502
4839;1501
4840;1501
4841;1501
4842;1500
4843;1500
4844;1500
4845;1500
4846;1500
4847;1500
4848;1500
4849;1500
4850;1500
4851;1500
4852;1500
4853;1500
4854;1500
4855;1501
4856;1501
4857;1501
4858;1501
4859;1501
4860;1502
4861;1502
4862;1502
4863;1503
4864;1503
4865;1503
4866;1504
4867;1504
4868;1504
4869;1504
4870;1504
4871;1504
4872;1504
4873;1504
4874;1504
4875;1504
4876;1503
4877;1503
4878;1502
4879;1502
4880;1501
4881;1501
4882;1500
4883;1499
4884;1499
4885;1498
4886;1497
4887;1496
4888;1496
4889;1495
4890;1494
4891;1494
4892;1494
4893;1494
4894;1494
4895;1493
4896;1493
4897;1493
4898;1493
4899;1493
4900;1493
4901;1493
4902;1493
4903;1494
4904;1493
4905;1494
4906;1494
4907;1495
4908;1495
4909;1496
4910;1497
4911;1497
4912;1499
4913;1499
4914;1500
4915;1501
4916;1501
4917;1502
4918;1503
4919;1503
4920;1503
4921;1504
4922;1504
4923;1504
4924;1504
4925;1504
4926;1504
4927;1504
4928;1504
4929;1503
4930;1503
4931;1502
4932;1502
4933;1502
4934;1501
4935;1501
4936;1500
4937;1500
4938;1499
4939;1498
4940;1498
4941;1497
4942;1496
4943;1496
4944;1496
4945;1495
4946;1494
4947;1493
4948;1493
4949;1493
4950;1493
4951;1493
4952;1493
4953;1494
4954;1494
4955;1494
4956;1494
4957;1494
4958;1494
4959;1494
4960;1495
4961;1495
4962;1495
4963;1496
4964;1496
4965;1496
4966;1497
4967;1496
4968;1497
4969;1498
4970;1498
4971;1499
4972;1498
4973;1499
4974;1499
4975;1499
4976;1499
4977;1499
4978;1499
4979;1499
4980;1499
4981;1499
4982;1499
4983;1499
4984;1498
4985;1497
4986;1497
4987;1497
4988;1495
4989;1495
4990;1494
4991;1493
4992;1493
4993;1492
4994;1492
4995;1491
4996;1491
4997;1491
4998;1491
4999;1491
5000;1491
5001;1491
5002;1491
5003;1491
5004;1492
5005;1492
5006;1492
5007;1492
5008;1492
5009;1493
5010;1493
5011;1494
5012;1495
5013;1495
5014;1496
5015;1497
5016;1498
5017;1499
5018;1499
5019;1499
5020;1500
5021;1500
5022;1500
5023;1500
5024;1500
5025;1500
5026;1499
5027;1499
5028;1498
5029;1499
5030;1498
5031;1498
5032;1497
5033;1497
5034;1496
5035;1495
5036;1494
5037;1492
5038;1490
5039;1489
5040;1486
5041;1485
5042;1484
5043;1482
5044;1481
5045;1480
5046;1480
5047;1478
5048;1478
5049;1478
5050;1478
5051;1478
5052;1478
5053;1478
5054;1478
5055;1479
5056;1479
5057;1480
5058;1480
5059;1480
5060;1481
5061;1482
5062;1482
5063;1483
5064;1483
5065;1484
5066;1484
5067;1485
5068;1485
5069;1485
5070;1486
5071;1486
5072;1486
5073;1487
5074;1487
5075;1487
5076;1488
5077;1488
5078;1488
5079;1487
5080;1487
5081;1486
5082;1486
5083;1485
5084;1485
5085;1485
5086;1484
5087;1484
5088;1483
5089;1483
5090;1483
5091;1483
5092;1483
5093;1484
5094;1484
5095;1485
5096;1485
5097;1485
5098;1485
5099;1486
5100;1486
5101;1486
5102;1486
5103;1486
5104;1486
5105;1486
5106;1487
5107;1488
5108;1488
5109;1489
5110;1490
5111;1491
5112;1492
5113;1493
5114;1494
5115;1494
5116;1496
5117;1497
5118;1498
5119;1500
5120;1500
5121;1501
5122;1502
5123;1503
5124;1503
5125;1503
5126;1504
5127;1504
5128;1504
5129;1504
5130;1505
5131;1505
5132;1505
5133;1505
5134;1505
5135;1505
5136;1504
5137;1504
5138;1503
5139;1501
5140;1499
5141;1498
5142;1496
5143;1495
5144;1494
5145;1491
5146;1490
5147;1489
5148;1487
5149;1487
5150;1486
5151;1485
5152;1484
5153;1483
5154;1482
5155;1481
5156;1480
5157;1480
5158;1479
5159;1478
5160;1478
5161;1478
5162;1478
5163;1478
5164;1478
5165;1480
5166;1480
5167;1481
5168;1483
5169;1484
5170;1485
5171;1486
5172;1487
5173;1488
5174;1489
5175;1490
5176;1491
5177;1491
5178;1492
5179;1493
5180;1493
5181;1494
5182;1495
5183;1495
5184;1496
5185;1497
5186;1497
5187;1497
5188;1497
5189;1497
5190;1497
5191;1497
5192;1497
5193;1497
5194;1497
5195;1497
5196;1497
5197;1497
5198;1497
5199;1497
5200;1497
5201;1498
5202;1498
5203;1498
5204;1498
5205;1499
5206;1499
5207;1500
5208;1500
5209;1500
5210;1501
5211;1503
5212;1504
5213;1504
5214;1506
5215;1507
5216;1508
5217;1509
5218;1510
5219;1511
5220;1512
5221;1514
5222;1514
5223;1516
5224;1517
5225;1517
5226;1518
5227;1519
5228;1520
5229;1520
5230;1520
5231;1520
5232;1520
5233;1520
5234;1519
5235;1519
5236;1518
5237;1517
5238;1516
5239;1515
5240;1512
5241;1511
5242;1508
5243;1506
5244;1500
5245;1498
5246;1496
5247;1492
5248;1491
5249;1490
5250;1488
5251;1487
5252;1487
5253;1487
5254;1487
5255;1488
5256;1488
5257;1491
5258;1492
5259;1493
5260;1495
5261;1496
5262;1497
5263;1499
5264;1501
5265;1502
5266;1503
5267;1506
5268;1508
5269;1508
5270;1511
5271;1511
5272;1512
5273;1514
5274;1514
5275;1515
5276;1516
5277;1516
5278;1517
5279;1517
5280;1517
5281;1516
5282;1516
5283;1515
5284;1514
5285;1513
5286;1511
5287;1510
5288;1509
5289;1507
5290;1505
5291;1505
5292;1504
5293;1503
5294;1503
5295;1503
5296;1504
5297;1505
5298;1505
5299;1506
5300;1506
5301;1506
5302;1506
5303;1507
5304;1507
5305;1507
5306;1509
5307;1510
5308;1511
5309;1514
5310;1515
5311;1517
5312;1519
5313;1520
5314;1521
5315;1522
5316;1523
5317;1523
5318;1523
5319;1524
5320;1523
5321;1523
5322;1521
5323;1521
5324;1520
5325;1519
5326;1519
5327;1519
5328;1518
5329;1517
5330;1516
5331;1516
5332;1516
5333;1515
5334;1515
5335;1516
5336;1516
5337;1516
5338;1517
5339;1517
5340;1518
5341;1519
5342;1520
5343;1521
5344;1522
5345;1524
5346;1525
5347;1526
5348;1528
5349;1530
5350;1531
5351;1532
5352;1534
5353;1535
5354;1537
5355;1540
5356;1541
5357;1543
5358;1547
5359;1549
5360;1550
5361;1552
5362;1554
5363;1555
5364;1556
5365;1559
5366;1560
5367;1562
5368;1564
5369;1565
5370;1567
5371;1569
5372;1569
5373;1570
5374;1570
5375;1570
5376;1571
5377;1570
5378;1569
5379;1568
5380;1567
5381;1564
5382;1561
5383;1559
5384;1555
5385;1552
5386;1550
5387;1546
5388;1540
5389;1537
5390;1533
5391;1527
5392;1523
5393;1521
5394;1516
5395;1514
5396;1512
5397;1510
5398;1509
5399;1509
5400;1508
5401;1506
5402;1505
5403;1504
5404;1502
5405;1502
5406;1501
5407;1501
5408;1500
5409;1501
5410;1501
5411;1503
5412;1504
5413;1505
5414;1508
5415;1509
5416;1511
5417;1514
5418;1516
5419;1518
5420;1520
5421;1522
5422;1523
5423;1525
5424;1528
5425;1530
5426;1531
5427;1534
5428;1535
5429;1536
5430;1538
5431;1539
5432;1540
5433;1540
5434;1540
5435;1540
5436;1539
5437;1537
5438;1536
5439;1535
5440;1532
5441;1530
5442;1529
5443;1526
5444;1526
5445;1525
5446;1523
5447;1523
5448;1523
5449;1523
5450;1522
5451;1522
5452;1520
5453;1517
5454;1516
5455;1514
5456;1511
5457;1510
5458;1509
5459;1509
5460;1509
5461;1510
5462;1511
5463;1513
5464;1514
5465;1516
5466;1519
5467;1522
5468;1524
5469;1527
5470;1528
5471;1530
5472;1530
5473;1529
5474;1527
5475;1525
5476;1521
5477;1520
5478;1520
5479;1518
5480;1519
5481;1519
5482;1520
5483;1523
5484;1524
5485;1526
5486;1530
5487;1531
5488;1533
5489;1534
5490;1535
5491;1536
5492;1537
5493;1537
5494;1536
5495;1533
5496;1530
5497;1529
5498;1528
5499;1528
5500;1527
5501;1527
5502;1529
5503;1530
5504;1531
5505;1531
5506;1532
5507;1532
5508;1534
5509;1537
5510;1539
5511;1541
5512;1545
5513;1547
5514;1549
5515;1554
5516;1556
5517;1557
5518;1557
5519;1558
5520;1558
5521;1558
5522;1559
5523;1559
5524;1559
5525;1561
5526;1562
5527;1562
5528;1565
5529;1566
5530;1567
5531;1568
5532;1567
5533;1565
5534;1561
5535;1555
5536;1551
5537;1548
5538;1542
5539;1538
5540;1535
5541;1531
5542;1526
5543;1524
5544;1522
5545;1519
5546;1518
5547;1518
5548;1519
5549;1520
5550;1521
5551;1523
5552;1524
5553;1525
5554;1526
5555;1529
5556;1530
5557;1532
5558;1535
5559;1536
5560;1537
5561;1540
5562;1541
5563;1542
5564;1544
5565;1544
5566;1545
5567;1544
5568;1545
5569;1544
5570;1544
5571;1543
5572;1543
5573;1542
5574;1542
5575;1541
5576;1540
5577;1537
5578;1532
5579;1528
5580;1525
5581;1518
5582;1515
5583;1513
5584;1507
5585;1504
5586;1501
5587;1496
5588;1495
5589;1493
5590;1492
5591;1489
5592;1489
5593;1488
5594;1488
5595;1488
5596;1489
5597;1490
5598;1491
5599;1493
5600;1494
5601;1496
5602;1497
5603;1498
5604;1499
5605;1498
5606;1497
5607;1496
5608;1496
5609;1496
5610;1495
5611;1494
5612;1494
5613;1494
5614;1491
5615;1489
5616;1487
5617;1485
5618;1485
5619;1485
5620;1486
5621;1487
5622;1488
5623;1490
5624;1494
5625;1497
5626;1499
5627;1503
5628;1504
5629;1505
5630;1507
5631;1508
5632;1509
5633;1510
5634;1509
5635;1509
5636;1508
5637;1507
5638;1506
5639;1505
5640;1503
5641;1501
5642;1498
5643;1488
5644;1483
5645;1477
5646;1472
5647;1464
5648;1461
5649;1458
5650;1455
5651;1454
5652;1455
5653;1457
5654;1459
5655;1461
5656;1466
5657;1468
5658;1471
5659;1474
5660;1478
5661;1481
5662;1483
5663;1488
5664;1490
5665;1493
5666;1497
5667;1498
5668;1500
5669;1501
5670;1504
5671;1506
5672;1507
5673;1509
5674;1510
5675;1510
5676;1509
5677;1505
5678;1502
5679;1495
5680;1491
5681;1487
5682;1484
5683;1480
5684;1478
5685;1477
5686;1477
5687;1478
5688;1479
5689;1481
5690;1482
5691;1482
5692;1479
5693;1475
5694;1472
5695;1470
5696;1464
5697;1462
5698;1459
5699;1457
5700;1457
5701;1456
5702;1456
5703;1456
5704;1457
5705;1457
5706;1452
5707;1447
5708;1443
5709;1436
5710;1432
5711;1429
5712;1427
5713;1427
5714;1429
5715;1431
5716;1437
5717;1441
5718;1445
5719;1453
5720;1457
5721;1461
5722;1468
5723;1471
5724;1474
5725;1479
5726;1482
5727;1484
5728;1486
5729;1489
5730;1490
5731;1492
5732;1495
5733;1495
5734;1497
5735;1499
5736;1499
5737;1500
5738;1501
5739;1500
5740;1499
5741;1497
5742;1483
5743;1475
5744;1467
5745;1452
5746;1445
5747;1438
5748;1427
5749;1425
5750;1423
5751;1422
5752;1424
5753;1426
5754;1429
5755;1435
5756;1438
5757;1440
5758;1444
5759;1445
5760;1447
5761;1448
5762;1450
5763;1452
5764;1453
5765;1456
5766;1456
5767;1457
5768;1456
5769;1456
5770;1456
5771;1457
5772;1456
5773;1457
5774;1457
5775;1458
5776;1459
5777;1460
5778;1464
5779;1467
5780;1469
5781;1474
5782;1477
5783;1479
5784;1481
5785;1485
5786;1487
5787;1488
5788;1488
5789;1487
5790;1486
5791;1482
5792;1480
5793;1478
5794;1473
5795;1471
5796;1469
5797;1466
5798;1459
5799;1454
5800;1449
5801;1440
5802;1437
5803;1434
5804;1430
5805;1428
5806;1427
5807;1426
5808;1426
5809;1425
5810;1425
5811;1421
5812;1419
5813;1417
5814;1413
5815;1412
5816;1411
5817;1409
5818;1409
5819;1410
5820;1411
5821;1417
5822;1420
5823;1423
5824;1429
5825;1431
5826;1433
5827;1438
5828;1441
5829;1442
5830;1443
5831;1445
5832;1446
5833;1447
5834;1445
5835;1444
5836;1443
5837;1443
5838;1442
5839;1443
5840;1444
5841;1445
5842;1445
5843;1446
5844;1448
5845;1449
5846;1450
5847;1452
5848;1453
5849;1455
5850;1457
5851;1458
5852;1459
5853;1460
5854;1462
5855;1464
5856;1464
5857;1466
5858;1466
5859;1466
5860;1466
5861;1466
5862;1466
5863;1464
5864;1459
5865;1455
5866;1451
5867;1445
5868;1442
5869;1441
5870;1438
5871;1437
5872;1435
5873;1433
5874;1433
5875;1433
5876;1433
5877;1428
5878;1425
5879;1424
5880;1423
5881;1424
5882;1426
5883;1431
5884;1434
5885;1438
5886;1446
5887;1450
5888;1454
5889;1457
5890;1463
5891;1466
5892;1469
5893;1472
5894;1473
5895;1473
5896;1473
5897;1473
5898;1473
5899;1472
5900;1469
5901;1467
5902;1466
5903;1462
5904;1461
5905;1460
5906;1459
5907;1459
5908;1459
5909;1458
5910;1455
5911;1454
5912;1453
5913;1452
5914;1452
5915;1452
5916;1454
5917;1455
5918;1457
5919;1461
5920;1462
5921;1464
5922;1465
5923;1469
5924;1471
5925;1473
5926;1476
5927;1478
5928;1480
5929;1483
5930;1485
5931;1486
5932;1488
5933;1488
5934;1489
5935;1488
5936;1488
5937;1487
5938;1488
5939;1489
5940;1489
5941;1490
5942;1489
5943;1487
5944;1487
5945;1486
5946;1485
5947;1484
5948;1483
5949;1477
5950;1474
5951;1471
5952;1466
5953;1464
5954;1463
5955;1462
5956;1461
5957;1462
5958;1462
5959;1463
5960;1463
5961;1462
5962;1462
5963;1461
5964;1462
5965;1461
5966;1458
5967;1450
5968;1437
5969;1429
5970;1421
5971;1415
5972;1404
5973;1401
5974;1398
5975;1395
5976;1394
5977;1393
5978;1395
5979;1396
5980;1398
5981;1400
5982;1402
5983;1403
5984;1404
5985;1402
5986;1400
5987;1396
5988;1391
5989;1390
5990;1390
5991;1393
5992;1396
5993;1399
5994;1403
5995;1410
5996;1414
5997;1418
5998;1427
5999;1431
6000;1434
6001;1440
6002;1442
6003;1444
6004;1446
6005;1450
6006;1452
6007;1453
6008;1458
6009;1460
6010;1463
6011;1466
6012;1468
6013;1469
6014;1472
6015;1474
6016;1473
6017;1471
6018;1469
6019;1468
6020;1468
6021;1468
6022;1469
6023;1470
6024;1467
6025;1463
6026;1460
6027;1458
6028;1454
6029;1453
6030;1452
6031;1451
6032;1451
6033;1451
6034;1449
6035;1448
6036;1447
6037;1447
6038;1446
6039;1445
6040;1443
6041;1440
6042;1439
6043;1438
6044;1437
6045;1438
6046;1439
6047;1442
6048;1444
6049;1447
6050;1449
6051;1452
6052;1451
6053;1443
6054;1427
6055;1420
6056;1415
6057;1408
6058;1406
6059;1405
6060;1408
6061;1411
6062;1414
6063;1419
6064;1427
6065;1432
6066;1437
6067;1446
6068;1451
6069;1454
6070;1462
6071;1465
6072;1469
6073;1473
6074;1480
6075;1483
6076;1487
6077;1491
6078;1493
6079;1495
6080;1497
6081;1498
6082;1499
6083;1500
6084;1501
6085;1502
6086;1503
6087;1505
6088;1504
6089;1501
6090;1493
6091;1487
6092;1482
6093;1474
6094;1470
6095;1467
6096;1466
6097;1467
6098;1468
6099;1470
6100;1476
6101;1480
6102;1484
6103;1494
6104;1498
6105;1502
6106;1509
6107;1512
6108;1515
6109;1517
6110;1516
6111;1516
6112;1515
6113;1515
6114;1512
6115;1508
6116;1503
6117;1500
6118;1496
6119;1489
6120;1487
6121;1485
6122;1485
6123;1485
6124;1484
6125;1482
6126;1476
6127;1474
6128;1474
6129;1475
6130;1476
6131;1477
6132;1479
6133;1482
6134;1483
6135;1484
6136;1483
6137;1483
6138;1484
6139;1486
6140;1487
6141;1488
6142;1492
6143;1494
6144;1497
6145;1500
6146;1506
6147;1509
6148;1511
6149;1515
6150;1517
6151;1519
6152;1522
6153;1524
6154;1525
6155;1526
6156;1530
6157;1532
6158;1534
6159;1537
6160;1538
6161;1540
6162;1544
6163;1545
6164;1545
6165;1544
6166;1544
6167;1543
6168;1542
6169;1540
6170;1538
6171;1536
6172;1534
6173;1532
6174;1531
6175;1530
6176;1531
6177;1532
6178;1534
6179;1536
6180;1537
6181;1539
6182;1542
6183;1543
6184;1543
6185;1545
6186;1546
6187;1548
6188;1551
6189;1551
6190;1551
6191;1550
6192;1536
6193;1531
6194;1526
6195;1519
6196;1516
6197;1513
6198;1511
6199;1511
6200;1511
6201;1515
6202;1517
6203;1520
6204;1522
6205;1526
6206;1528
6207;1528
6208;1529
6209;1529
6210;1530
6211;1530
6212;1529
6213;1527
6214;1525
6215;1523
6216;1523
6217;1521
6218;1520
6219;1520
6220;1521
6221;1527
6222;1530
6223;1534
6224;1544
6225;1547
6226;1549
6227;1550
6228;1554
6229;1555
6230;1556
6231;1557
6232;1557
6233;1558
6234;1559
6235;1560
6236;1562
6237;1565
6238;1567
6239;1569
6240;1571
6241;1577
6242;1580
6243;1583
6244;1588
6245;1589
6246;1591
6247;1592
6248;1592
6249;1592
6250;1591
6251;1590
6252;1590
6253;1590
6254;1591
6255;1592
6256;1592
6257;1593
6258;1592
6259;1590
6260;1582
6261;1577
6262;1573
6263;1569
6264;1561
6265;1557
6266;1554
6267;1548
6268;1545
6269;1542
6270;1535
6271;1533
6272;1532
6273;1532
6274;1534
6275;1536
6276;1539
6277;1546
6278;1549
6279;1553
6280;1561
6281;1565
6282;1569
6283;1575
6284;1578
6285;1581
6286;1586
6287;1589
6288;1591
6289;1594
6290;1599
6291;1601
6292;1603
6293;1608
6294;1610
6295;1611
6296;1611
6297;1610
6298;1609
6299;1608
6300;1603
6301;1600
6302;1597
6303;1594
6304;1593
6305;1593
6306;1593
6307;1592
6308;1592
6309;1588
6310;1587
6311;1586
6312;1586
6313;1586
6314;1586
6315;1587
6316;1589
6317;1589
6318;1591
6319;1595
6320;1597
6321;1599
6322;1603
6323;1604
6324;1606
6325;1607
6326;1611
6327;1612
6328;1612
6329;1606
6330;1603
6331;1597
6332;1588
6333;1584
6334;1580
6335;1574
6336;1555
6337;1548
6338;1541
6339;1532
6340;1528
6341;1523
6342;1516
6343;1507
6344;1498
6345;1482
6346;1478
6347;1475
6348;1474
6349;1476
6350;1479
6351;1483
6352;1493
6353;1500
6354;1506
6355;1518
6356;1524
6357;1530
6358;1535
6359;1546
6360;1551
6361;1555
6362;1561
6363;1562
6364;1563
6365;1565
6366;1566
6367;1566
6368;1569
6369;1571
6370;1574
6371;1577
6372;1582
6373;1585
6374;1588
6375;1595
6376;1598
6377;1600
6378;1604
6379;1606
6380;1608
6381;1610
6382;1613
6383;1615
6384;1616
6385;1620
6386;1622
6387;1623
6388;1626
6389;1627
6390;1628
6391;1629
6392;1629
6393;1628
6394;1626
6395;1618
6396;1610
6397;1602
6398;1586
6399;1576
6400;1567
6401;1547
6402;1537
6403;1525
6404;1513
6405;1493
6406;1486
6407;1481
6408;1474
6409;1473
6410;1473
6411;1477
6412;1480
6413;1482
6414;1483
6415;1483
6416;1482
6417;1480
6418;1474
6419;1469
6420;1463
6421;1456
6422;1455
6423;1456
6424;1460
6425;1463
6426;1467
6427;1470
6428;1479
6429;1482
6430;1486
6431;1492
6432;1493
6433;1492
6434;1492
6435;1492
6436;1493
6437;1488
6438;1488
6439;1488
6440;1489
6441;1493
6442;1495
6443;1498
6444;1506
6445;1510
6446;1514
6447;1524
6448;1529
6449;1534
6450;1539
6451;1550
6452;1555
6453;1559
6454;1567
6455;1572
6456;1575
6457;1581
6458;1581
6459;1581
6460;1581
6461;1581
6462;1582
6463;1583
6464;1581
6465;1580
6466;1578
6467;1568
6468;1563
6469;1558
6470;1540
6471;1532
6472;1525
6473;1513
6474;1509
6475;1507
6476;1505
6477;1506
6478;1508
6479;1510
6480;1516
6481;1520
6482;1524
6483;1535
6484;1539
6485;1545
6486;1554
6487;1558
6488;1561
6489;1565
6490;1570
6491;1573
6492;1575
6493;1580
6494;1582
6495;1584
6496;1588
6497;1590
6498;1591
6499;1592
6500;1595
6501;1596
6502;1596
6503;1597
6504;1597
6505;1596
6506;1594
6507;1594
6508;1593
6509;1593
6510;1593
6511;1593
6512;1592
6513;1588
6514;1584
6515;1578
6516;1565
6517;1558
6518;1553
6519;1544
6520;1540
6521;1537
6522;1533
6523;1531
6524;1531
6525;1529
6526;1526
6527;1526
6528;1526
6529;1526
6530;1526
6531;1527
6532;1532
6533;1534
6534;1537
6535;1539
6536;1546
6537;1549
6538;1553
6539;1560
6540;1563
6541;1566
6542;1571
6543;1573
6544;1574
6545;1578
6546;1579
6547;1580
6548;1579
6549;1572
6550;1569
6551;1565
6552;1562
6553;1561
6554;1561
6555;1558
6556;1554
6557;1546
6558;1527
6559;1516
6560;1505
6561;1497
6562;1482
6563;1476
6564;1470
6565;1464
6566;1463
6567;1463
6568;1467
6569;1470
6570;1473
6571;1477
6572;1484
6573;1488
6574;1491
6575;1494
6576;1496
6577;1499
6578;1504
6579;1508
6580;1511
6581;1518
6582;1523
6583;1527
6584;1531
6585;1537
6586;1540
6587;1543
6588;1549
6589;1551
6590;1554
6591;1559
6592;1559
6593;1561
6594;1562
6595;1563
6596;1564
6597;1564
6598;1563
6599;1560
6600;1554
6601;1543
6602;1537
6603;1533
6604;1527
6605;1525
6606;1524
6607;1523
6608;1523
6609;1525
6610;1526
6611;1530
6612;1532
6613;1534
6614;1537
6615;1538
6616;1540
6617;1543
6618;1545
6619;1546
6620;1548
6621;1551
6622;1553
6623;1555
6624;1558
6625;1560
6626;1562
6627;1564
6628;1566
6629;1567
6630;1568
6631;1570
6632;1571
6633;1572
6634;1573
6635;1573
6636;1573
6637;1572
6638;1572
6639;1571
6640;1571
6641;1570
6642;1569
6643;1569
6644;1566
6645;1563
6646;1561
6647;1556
6648;1554
6649;1552
6650;1549
6651;1547
6652;1546
6653;1545
6654;1545
6655;1545
6656;1544
6657;1545
6658;1545
6659;1544
6660;1543
6661;1540
6662;1537
6663;1529
6664;1526
6665;1523
6666;1520
6667;1514
6668;1513
6669;1512
6670;1510
6671;1509
6672;1509
6673;1509
6674;1510
6675;1509
6676;1500
6677;1495
6678;1491
6679;1488
6680;1483
6681;1483
6682;1482
6683;1481
6684;1481
6685;1480
6686;1480
6687;1481
6688;1483
6689;1484
6690;1487
6691;1489
6692;1492
6693;1499
6694;1502
6695;1505
6696;1501
6697;1496
6698;1492
6699;1483
6700;1479
6701;1475
6702;1471
6703;1464
6704;1460
6705;1457
6706;1454
6707;1455
6708;1455
6709;1458
6710;1459
6711;1461
6712;1464
6713;1467
6714;1470
6715;1472
6716;1476
6717;1478
6718;1480
6719;1482
6720;1482
6721;1480
6722;1479
6723;1479
6724;1479
6725;1479
6726;1481
6727;1482
6728;1484
6729;1490
6730;1494
6731;1498
6732;1505
6733;1508
6734;1511
6735;1517
6736;1520
6737;1522
6738;1525
6739;1529
6740;1530
6741;1530
6742;1527
6743;1525
6744;1523
6745;1518
6746;1516
6747;1515
6748;1514
6749;1512
6750;1512
6751;1512
6752;1514
6753;1514
6754;1516
6755;1518
6756;1519
6757;1521
6758;1524
6759;1526
6760;1528
6761;1529
6762;1531
6763;1532
6764;1532
6765;1533
6766;1532
6767;1530
6768;1527
6769;1525
6770;1525
6771;1521
6772;1505
6773;1497
6774;1490
6775;1479
6776;1476
6777;1473
6778;1464
6779;1459
6780;1455
6781;1449
6782;1448
6783;1448
6784;1450
6785;1458
6786;1463
6787;1468
6788;1477
6789;1481
6790;1485
6791;1492
6792;1494
6793;1496
6794;1498
6795;1499
6796;1498
6797;1493
6798;1483
6799;1478
6800;1475
6801;1464
6802;1452
6803;1440
6804;1420
6805;1413
6806;1408
6807;1404
6808;1403
6809;1405
6810;1408
6811;1417
6812;1424
6813;1431
6814;1444
6815;1451
6816;1457
6817;1463
6818;1474
6819;1480
6820;1484
6821;1491
6822;1494
6823;1498
6824;1505
6825;1508
6826;1512
6827;1518
6828;1521
6829;1524
6830;1527
6831;1533
6832;1533
6833;1534
6834;1536
6835;1537
6836;1537
6837;1536
6838;1535
6839;1534
6840;1534
6841;1531
6842;1530
6843;1529
6844;1527
6845;1526
6846;1526
6847;1525
6848;1524
6849;1524
6850;1523
6851;1520
6852;1515
6853;1510
6854;1496
6855;1488
6856;1480
6857;1471
6858;1468
6859;1466
6860;1464
6861;1466
6862;1468
6863;1471
6864;1478
6865;1483
6866;1487
6867;1497
6868;1501
6869;1505
6870;1512
6871;1514
6872;1516
6873;1520
6874;1522
6875;1524
6876;1527
6877;1531
6878;1533
6879;1534
6880;1538
6881;1539
6882;1539
6883;1533
6884;1528
6885;1524
6886;1516
6887;1513
6888;1512
6889;1511
6890;1512
6891;1513
6892;1516
6893;1517
6894;1517
6895;1516
6896;1511
6897;1508
6898;1507
6899;1506
6900;1506
6901;1506
6902;1507
6903;1503
6904;1500
6905;1497
6906;1493
6907;1491
6908;1490
6909;1487
6910;1486
6911;1486
6912;1487
6913;1491
6914;1494
6915;1498
6916;1504
6917;1507
6918;1507
6919;1503
6920;1502
6921;1502
6922;1502
6923;1503
6924;1504
6925;1505
6926;1510
6927;1513
6928;1516
6929;1523
6930;1525
6931;1526
6932;1521
6933;1513
6934;1505
6935;1497
6936;1485
6937;1480
6938;1476
6939;1473
6940;1473
6941;1473
6942;1476
6943;1478
6944;1481
6945;1485
6946;1491
6947;1495
6948;1499
6949;1506
6950;1509
6951;1511
6952;1514
6953;1515
6954;1516
6955;1516
6956;1515
6957;1513
6958;1513
6959;1512
6960;1513
6961;1513
6962;1513
6963;1513
6964;1513
6965;1514
6966;1514
6967;1512
6968;1511
6969;1506
6970;1502
6971;1497
6972;1485
6973;1475
6974;1464
6975;1445
6976;1437
6977;1431
6978;1427
6979;1427
6980;1430
6981;1433
6982;1443
6983;1449
6984;1454
6985;1466
6986;1471
6987;1476
6988;1482
6989;1481
6990;1481
6991;1477
6992;1472
6993;1462
6994;1449
6995;1428
6996;1421
6997;1415
6998;1409
6999;1407
7000;1405
7001;1397
7002;1396
7003;1396
7004;1397
7005;1402
7006;1404
7007;1407
7008;1414
7009;1418
7010;1422
7011;1432
7012;1436
7013;1441
7014;1452
7015;1458
7016;1464
7017;1464
7018;1463
7019;1462
7020;1461
7021;1460
7022;1459
7023;1459
7024;1457
7025;1456
7026;1456
7027;1456
7028;1460
7029;1463
7030;1466
7031;1474
7032;1479
7033;1483
7034;1493
7035;1497
7036;1501
7037;1505
7038;1513
7039;1516
7040;1518
7041;1523
7042;1525
7043;1527
7044;1532
7045;1535
7046;1538
7047;1542
7048;1541
7049;1541
7050;1540
7051;1538
7052;1535
7053;1534
7054;1529
7055;1527
7056;1526
7057;1523
7058;1522
7059;1521
7060;1520
7061;1520
7062;1519
7063;1520
7064;1522
7065;1523
7066;1525
7067;1529
7068;1530
7069;1531
7070;1533
7071;1533
7072;1533
7073;1533
7074;1531
7075;1531
7076;1530
7077;1531
7078;1532
7079;1533
7080;1535
7081;1536
7082;1538
7083;1542
7084;1541
7085;1538
7086;1528
7087;1502
7088;1491
7089;1481
7090;1469
7091;1466
7092;1465
7093;1468
7094;1471
7095;1475
7096;1478
7097;1487
7098;1492
7099;1495
7100;1502
7101;1504
7102;1507
7103;1511
7104;1511
7105;1512
7106;1514
7107;1515
7108;1512
7109;1507
7110;1501
7111;1498
7112;1496
7113;1493
7114;1492
7115;1491
7116;1490
7117;1490
7118;1492
7119;1495
7120;1498
7121;1501
7122;1504
7123;1510
7124;1513
7125;1515
7126;1520
7127;1521
7128;1524
7129;1527
7130;1529
7131;1531
7132;1532
7133;1535
7134;1536
7135;1537
7136;1535
7137;1534
7138;1534
7139;1534
7140;1530
7141;1527
7142;1520
7143;1517
7144;1514
7145;1512
7146;1507
7147;1503
7148;1500
7149;1488
7150;1482
7151;1476
7152;1461
7153;1452
7154;1444
7155;1437
7156;1430
7157;1428
7158;1428
7159;1431
7160;1435
7161;1438
7162;1447
7163;1451
7164;1455
7165;1462
7166;1466
7167;1469
7168;1468
7169;1465
7170;1463
7171;1462
7172;1461
7173;1461
7174;1461
7175;1453
7176;1450
7177;1447
7178;1446
7179;1441
7180;1438
7181;1434
7182;1431
7183;1432
7184;1434
7185;1441
7186;1446
7187;1451
7188;1462
7189;1467
7190;1471
7191;1475
7192;1478
7193;1475
7194;1471
7195;1463
7196;1459
7197;1453
7198;1443
7199;1440
7200;1437
7201;1436
7202;1438
7203;1438
7204;1437
7205;1418
7206;1407
7207;1398
7208;1384
7209;1380
7210;1377
7211;1377
7212;1380
7213;1384
7214;1389
7215;1403
7216;1412
7217;1419
7218;1425
7219;1427
7220;1428
7221;1428
7222;1426
7223;1425
7224;1424
7225;1423
7226;1424
7227;1426
7228;1431
7229;1434
7230;1438
7231;1445
7232;1448
7233;1452
7234;1459
7235;1463
7236;1466
7237;1470
7238;1476
7239;1479
7240;1482
7241;1489
7242;1490
7243;1492
7244;1495
7245;1497
7246;1500
7247;1502
7248;1509
7249;1513
7250;1516
7251;1522
7252;1525
7253;1528
7254;1532
7255;1531
7256;1528
7257;1524
7258;1523
7259;1523
7260;1522
7261;1526
7262;1528
7263;1530
7264;1536
7265;1538
7266;1537
7267;1531
7268;1528
7269;1526
7270;1524
7271;1523
7272;1524
7273;1524
7274;1527
7275;1527
7276;1528
7277;1529
7278;1528
7279;1527
7280;1527
7281;1527
7282;1528
7283;1528
7284;1529
7285;1530
7286;1531
7287;1533
7288;1534
7289;1535
7290;1537
7291;1537
7292;1538
7293;1540
7294;1540
7295;1541
7296;1542
7297;1545
7298;1547
7299;1549
7300;1554
7301;1556
7302;1558
7303;1562
7304;1562
7305;1562
7306;1561
7307;1560
7308;1560
7309;1560
7310;1561
7311;1561
7312;1562
7313;1564
7314;1565
7315;1566
7316;1568
7317;1569
7318;1568
7319;1566
7320;1564
7321;1562
7322;1560
7323;1554
7324;1546
7325;1538
7326;1526
7327;1520
7328;1514
7329;1508
7330;1507
7331;1507
7332;1508
7333;1512
7334;1516
7335;1519
7336;1527
7337;1530
7338;1533
7339;1538
7340;1538
7341;1536
7342;1533
7343;1525
7344;1522
7345;1519
7346;1516
7347;1515
7348;1514
7349;1513
7350;1514
7351;1515
7352;1517
7353;1519
7354;1521
7355;1521
7356;1520
7357;1520
7358;1519
7359;1518
7360;1518
7361;1517
7362;1516
7363;1517
7364;1517
7365;1516
7366;1515
7367;1512
7368;1504
7369;1483
7370;1475
7371;1469
7372;1462
7373;1461
7374;1462
7375;1470
7376;1475
7377;1482
7378;1488
7379;1494
7380;1492
7381;1487
7382;1477
7383;1473
7384;1469
7385;1466
7386;1464
7387;1465
7388;1466
7389;1470
7390;1470
7391;1470
7392;1473
7393;1475
7394;1478
7395;1484
7396;1488
7397;1491
7398;1500
7399;1504
7400;1508
7401;1512
7402;1520
7403;1523
7404;1526
7405;1529
7406;1530
7407;1530
7408;1528
7409;1527
7410;1526
7411;1523
7412;1518
7413;1510
7414;1501
7415;1483
7416;1475
7417;1469
7418;1462
7419;1461
7420;1460
7421;1461
7422;1462
7423;1465
7424;1472
7425;1476
7426;1480
7427;1484
7428;1492
7429;1496
7430;1500
7431;1508
7432;1510
7433;1509
7434;1495
7435;1485
7436;1475
7437;1466
7438;1449
7439;1441
7440;1432
7441;1416
7442;1410
7443;1405
7444;1395
7445;1392
7446;1392
7447;1393
7448;1394
7449;1396
7450;1397
7451;1398
7452;1400
7453;1402
7454;1404
7455;1406
7456;1408
7457;1414
7458;1418
7459;1422
7460;1426
7461;1436
7462;1441
7463;1445
7464;1456
7465;1461
7466;1467
7467;1478
7468;1483
7469;1488
7470;1497
7471;1500
7472;1501
7473;1503
7474;1507
7475;1509
7476;1512
7477;1518
7478;1521
7479;1525
7480;1531
7481;1535
7482;1538
7483;1538
7484;1537
7485;1536
7486;1533
7487;1527
7488;1525
7489;1523
7490;1521
7491;1519
7492;1518
7493;1511
7494;1505
7495;1500
7496;1495
7497;1489
7498;1487
7499;1487
7500;1488
7501;1489
7502;1491
7503;1497
7504;1500
7505;1503
7506;1511
7507;1514
7508;1517
7509;1519
7510;1524
7511;1527
7512;1529
7513;1534
7514;1536
7515;1535
7516;1535
7517;1535
7518;1534
7519;1532
7520;1532
7521;1532
7522;1532
7523;1532
7524;1531
7525;1529
7526;1526
7527;1524
7528;1523
7529;1523
7530;1523
7531;1524
7532;1524
7533;1518
7534;1514
7535;1511
7536;1507
7537;1503
7538;1496
7539;1480
7540;1470
7541;1459
7542;1434
7543;1423
7544;1415
7545;1408
7546;1400
7547;1398
7548;1399
7549;1406
7550;1412
7551;1415
7552;1420
7553;1424
7554;1427
7555;1430
7556;1436
7557;1440
7558;1443
7559;1452
7560;1456
7561;1461
7562;1470
7563;1474
7564;1476
7565;1480
7566;1482
7567;1483
7568;1484
7569;1482
7570;1479
7571;1470
7572;1447
7573;1437
7574;1429
7575;1418
7576;1415
7577;1414
7578;1410
7579;1408
7580;1406
7581;1405
7582;1407
7583;1410
7584;1414
7585;1425
7586;1430
7587;1437
7588;1449
7589;1456
7590;1462
7591;1468
7592;1478
7593;1480
7594;1483
7595;1487
7596;1489
7597;1492
7598;1494
7599;1492
7600;1490
7601;1487
7602;1486
7603;1486
7604;1487
7605;1490
7606;1493
7607;1495
7608;1498
7609;1499
7610;1499
7611;1493
7612;1491
7613;1489
7614;1486
7615;1471
7616;1459
7617;1448
7618;1429
7619;1420
7620;1412
7621;1406
7622;1407
7623;1408
7624;1408
7625;1412
7626;1416
7627;1420
7628;1431
7629;1436
7630;1442
7631;1453
7632;1457
7633;1461
7634;1468
7635;1471
7636;1473
7637;1475
7638;1474
7639;1470
7640;1461
7641;1448
7642;1439
7643;1430
7644;1416
7645;1410
7646;1404
7647;1394
7648;1390
7649;1388
7650;1384
7651;1378
7652;1374
7653;1366
7654;1357
7655;1354
7656;1353
7657;1356
7658;1359
7659;1364
7660;1370
7661;1385
7662;1394
7663;1403
7664;1414
7665;1415
7666;1416
7667;1419
7668;1421
7669;1423
7670;1429
7671;1433
7672;1436
7673;1439
7674;1443
7675;1443
7676;1437
7677;1415
7678;1406
7679;1399
7680;1390
7681;1388
7682;1388
7683;1388
7684;1392
7685;1390
7686;1388
7687;1391
7688;1394
7689;1399
7690;1411
7691;1418
7692;1424
7693;1430
7694;1441
7695;1447
7696;1452
7697;1458
7698;1460
7699;1461
7700;1463
7701;1464
7702;1467
7703;1475
7704;1478
7705;1482
7706;1486
7707;1495
7708;1500
7709;1503
7710;1509
7711;1511
7712;1512
7713;1514
7714;1515
7715;1516
7716;1517
7717;1516
7718;1514
7719;1511
7720;1497
7721;1489
7722;1483
7723;1473
7724;1469
7725;1467
7726;1465
7727;1465
7728;1467
7729;1468
7730;1473
7731;1475
7732;1478
7733;1479
7734;1480
7735;1480
7736;1483
7737;1485
7738;1487
7739;1492
7740;1495
7741;1497
7742;1500
7743;1507
7744;1510
7745;1512
7746;1516
7747;1517
7748;1519
7749;1521
7750;1522
7751;1523
7752;1523
7753;1525
7754;1526
7755;1526
7756;1527
7757;1527
7758;1528
7759;1526
7760;1524
7761;1520
7762;1505
7763;1497
7764;1488
7765;1481
7766;1468
7767;1460
7768;1450
7769;1431
7770;1421
7771;1406
7772;1355
7773;1333
7774;1316
7775;1301
7776;1285
7777;1284
7778;1286
7779;1298
7780;1309
7781;1319
7782;1334
7783;1341
7784;1349
7785;1366
7786;1374
7787;1381
7788;1387
7789;1393
7790;1396
7791;1400
7792;1411
7793;1418
7794;1425
7795;1440
7796;1448
7797;1456
7798;1463
7799;1476
7800;1482
7801;1488
7802;1498
7803;1502
7804;1506
7805;1507
7806;1504
7807;1500
7808;1492
7809;1487
7810;1481
7811;1476
7812;1471
7813;1470
7814;1469
7815;1470
7816;1470
7817;1469
7818;1464
7819;1463
7820;1463
7821;1464
7822;1466
7823;1468
7824;1470
7825;1477
7826;1480
7827;1484
7828;1493
7829;1495
7830;1499
7831;1506
7832;1510
7833;1513
7834;1516
7835;1521
7836;1522
7837;1524
7838;1528
7839;1531
7840;1532
7841;1536
7842;1537
7843;1539
7844;1542
7845;1543
7846;1544
7847;1544
7848;1544
7849;1542
7850;1539
7851;1527
7852;1521
7853;1516
7854;1508
7855;1506
7856;1504
7857;1501
7858;1492
7859;1489
7860;1487
7861;1481
7862;1478
7863;1472
7864;1461
7865;1456
7866;1453
7867;1451
7868;1447
7869;1445
7870;1442
7871;1441
7872;1442
7873;1445
7874;1452
7875;1456
7876;1461
7877;1471
7878;1476
7879;1480
7880;1484
7881;1490
7882;1493
7883;1496
7884;1497
7885;1495
7886;1493
7887;1490
7888;1488
7889;1485
7890;1476
7891;1469
7892;1461
7893;1456
7894;1447
7895;1445
7896;1444
7897;1445
7898;1446
7899;1445
7900;1446
7901;1447
7902;1448
7903;1450
7904;1456
7905;1459
7906;1461
7907;1467
7908;1465
7909;1463
7910;1458
7911;1457
7912;1457
7913;1458
7914;1459
7915;1461
7916;1462
7917;1459
7918;1458
7919;1458
7920;1460
7921;1462
7922;1464
7923;1467
7924;1470
7925;1474
7926;1478
7927;1487
7928;1491
7929;1496
7930;1505
7931;1510
7932;1514
7933;1521
7934;1525
7935;1528
7936;1534
7937;1537
7938;1540
7939;1543
7940;1548
7941;1550
7942;1552
7943;1551
7944;1549
7945;1545
7946;1537
7947;1534
7948;1533
7949;1532
7950;1532
7951;1534
7952;1535
7953;1538
7954;1535
7955;1531
7956;1511
7957;1497
7958;1483
7959;1460
7960;1452
7961;1448
7962;1445
7963;1444
7964;1446
7965;1450
7966;1455
7967;1457
7968;1460
7969;1462
7970;1461
7971;1461
7972;1462
7973;1466
7974;1469
7975;1472
7976;1481
7977;1486
7978;1491
7979;1501
7980;1506
7981;1511
7982;1521
7983;1525
7984;1529
7985;1532
7986;1537
7987;1539
7988;1542
7989;1546
7990;1548
7991;1548
7992;1550
7993;1550
7994;1549
7995;1546
7996;1544
7997;1542
7998;1540
7999;1534
8000;1529
8001;1522
8002;1513
8003;1510
8004;1507
8005;1508
8006;1509
8007;1510
8008;1515
8009;1517
8010;1519
8011;1521
8012;1516
8013;1513
8014;1509
8015;1501
8016;1498
8017;1495
8018;1489
8019;1488
8020;1488
8021;1489
8022;1492
8023;1494
8024;1497
8025;1502
8026;1505
8027;1508
8028;1514
8029;1517
8030;1519
8031;1523
8032;1525
8033;1527
8034;1529
8035;1534
8036;1536
8037;1539
8038;1544
8039;1546
8040;1549
8041;1551
8042;1551
8043;1552
8044;1553
8045;1555
8046;1556
8047;1557
8048;1559
8049;1560
8050;1561
8051;1562
8052;1561
8053;1559
8054;1554
8055;1552
8056;1551
8057;1550
8058;1549
8059;1549
8060;1548
8061;1547
8062;1546
8063;1546
8064;1546
8065;1546
8066;1545
8067;1545
8068;1544
8069;1543
8070;1542
8071;1539
8072;1536
8073;1533
8074;1529
8075;1528
8076;1528
8077;1529
8078;1530
8079;1533
8080;1537
8081;1538
8082;1538
8083;1537
8084;1524
8085;1515
8086;1505
8087;1481
8088;1473
8089;1466
8090;1460
8091;1459
8092;1461
8093;1461
8094;1461
8095;1461
8096;1459
8097;1444
8098;1431
8099;1415
8100;1387
8101;1376
8102;1368
8103;1363
8104;1365
8105;1370
8106;1375
8107;1382
8108;1388
8109;1395
8110;1413
8111;1422
8112;1430
8113;1447
8114;1456
8115;1464
8116;1473
8117;1490
8118;1498
8119;1505
8120;1518
8121;1524
8122;1529
8123;1539
8124;1543
8125;1548
8126;1556
8127;1560
8128;1564
8129;1567
8130;1573
8131;1575
8132;1577
8133;1578
8134;1576
8135;1571
8136;1558
8137;1552
8138;1544
8139;1536
8140;1521
8141;1515
8142;1511
8143;1506
8144;1505
8145;1506
8146;1508
8147;1510
8148;1512
8149;1516
8150;1518
8151;1520
8152;1522
8153;1525
8154;1527
8155;1528
8156;1530
8157;1532
8158;1533
8159;1536
8160;1537
8161;1539
8162;1543
8163;1545
8164;1547
8165;1549
8166;1549
8167;1549
8168;1550
8169;1551
8170;1550
8171;1550
8172;1548
8173;1547
8174;1546
8175;1545
8176;1542
8177;1539
8178;1537
8179;1537
8180;1537
8181;1536
8182;1536
8183;1537
8184;1539
8185;1545
8186;1548
8187;1553
8188;1556
8189;1563
8190;1563
8191;1562
8192;1562
8193;1560
8194;1557
8195;1551
8196;1548
8197;1544
8198;1539
8199;1532
8200;1532
8201;1530
8202;1527
8203;1527
8204;1526
8205;1525
8206;1526
8207;1527
8208;1530
8209;1532
8210;1535
8211;1537
8212;1543
8213;1545
8214;1547
8215;1550
8216;1548
8217;1542
8218;1532
8219;1529
8220;1526
8221;1525
8222;1525
8223;1527
8224;1528
8225;1532
8226;1534
8227;1536
8228;1533
8229;1532
8230;1531
8231;1530
8232;1530
8233;1531
8234;1534
8235;1539
8236;1543
8237;1546
8238;1554
8239;1558
8240;1562
8241;1570
8242;1572
8243;1575
8244;1580
8245;1582
8246;1583
8247;1584
8248;1586
8249;1586
8250;1587
8251;1585
8252;1584
8253;1584
8254;1584
8255;1584
8256;1584
8257;1584
8258;1584
8259;1584
8260;1583
8261;1578
8262;1572
8263;1566
8264;1554
8265;1548
8266;1544
8267;1536
8268;1534
8269;1532
8270;1531
8271;1531
8272;1532
8273;1533
8274;1536
8275;1538
8276;1540
8277;1544
8278;1546
8279;1549
8280;1550
8281;1549
8282;1550
8283;1544
8284;1540
8285;1536
8286;1533
8287;1531
8288;1530
8289;1530
8290;1530
8291;1531
8292;1532
8293;1530
8294;1529
8295;1528
8296;1528
8297;1529
8298;1529
8299;1531
8300;1532
8301;1530
8302;1526
8303;1519
8304;1514
8305;1506
8306;1498
8307;1485
8308;1479
8309;1469
8310;1445
8311;1436
8312;1429
8313;1424
8314;1425
8315;1428
8316;1439
8317;1446
8318;1454
8319;1462
8320;1478
8321;1485
8322;1490
8323;1499
8324;1502
8325;1504
8326;1504
8327;1504
8328;1505
8329;1506
8330;1504
8331;1503
8332;1503
8333;1505
8334;1507
8335;1511
8336;1519
8337;1523
8338;1525
8339;1525
8340;1526
8341;1527
8342;1529
8343;1533
8344;1533
8345;1529
8346;1518
8347;1513
8348;1508
8349;1500
8350;1498
8351;1497
8352;1497
8353;1497
8354;1498
8355;1498
8356;1499
8357;1500
8358;1500
8359;1500
8360;1500
8361;1501
8362;1503
8363;1500
8364;1494
8365;1487
8366;1473
8367;1466
8368;1460
8369;1454
8370;1455
8371;1457
8372;1467
8373;1474
8374;1482
8375;1499
8376;1509
8377;1517
8378;1525
8379;1539
8380;1545
8381;1550
8382;1560
8383;1564
8384;1567
8385;1571
8386;1572
8387;1573
8388;1573
8389;1572
8390;1571
8391;1570
8392;1569
8393;1568
8394;1567
8395;1563
8396;1561
8397;1560
8398;1559
8399;1560
8400;1560
8401;1560
8402;1562
8403;1561
8404;1559
8405;1557
8406;1556
8407;1557
8408;1558
8409;1559
8410;1561
8411;1567
8412;1570
8413;1573
8414;1576
8415;1582
8416;1584
8417;1586
8418;1588
8419;1588
8420;1585
8421;1576
8422;1572
8423;1566
8424;1553
8425;1548
8426;1545
8427;1543
8428;1541
8429;1542
8430;1543
8431;1547
8432;1549
8433;1552
8434;1557
8435;1559
8436;1562
8437;1564
8438;1568
8439;1570
8440;1572
8441;1572
8442;1572
8443;1572
8444;1571
8445;1571
8446;1570
8447;1567
8448;1567
8449;1566
8450;1566
8451;1566
8452;1564
8453;1562
8454;1556
8455;1549
8456;1544
8457;1536
8458;1532
8459;1530
8460;1527
8461;1524
8462;1523
8463;1522
8464;1521
8465;1520
8466;1515
8467;1508
8468;1501
8469;1495
8470;1484
8471;1480
8472;1478
8473;1478
8474;1481
8475;1483
8476;1485
8477;1491
8478;1493
8479;1495
8480;1497
8481;1500
8482;1502
8483;1505
8484;1509
8485;1512
8486;1514
8487;1520
8488;1522
8489;1522
8490;1522
8491;1523
8492;1525
8493;1529
8494;1530
8495;1532
8496;1534
8497;1539
8498;1541
8499;1543
8500;1547
8501;1546
8502;1547
8503;1541
8504;1535
8505;1528
8506;1516
8507;1507
8508;1494
8509;1476
8510;1438
8511;1418
8512;1401
8513;1372
8514;1361
8515;1353
8516;1343
8517;1342
8518;1343
8519;1347
8520;1360
8521;1367
8522;1374
8523;1391
8524;1399
8525;1406
8526;1421
8527;1427
8528;1434
8529;1448
8530;1455
8531;1461
8532;1467
8533;1478
8534;1482
8535;1480
8536;1479
8537;1478
8538;1472
8539;1458
8540;1453
8541;1450
8542;1448
8543;1451
8544;1454
8545;1458
8546;1468
8547;1474
8548;1480
8549;1492
8550;1498
8551;1503
8552;1512
8553;1516
8554;1520
8555;1522
8556;1525
8557;1527
8558;1528
8559;1530
8560;1530
8561;1530
8562;1530
8563;1529
8564;1529
8565;1530
8566;1530
8567;1531
8568;1530
8569;1532
8570;1532
8571;1533
8572;1534
8573;1536
8574;1536
8575;1538
8576;1539
8577;1540
8578;1539
8579;1527
8580;1521
8581;1516
8582;1506
8583;1501
8584;1494
8585;1481
8586;1475
8587;1472
8588;1470
8589;1471
8590;1473
8591;1476
8592;1483
8593;1487
8594;1491
8595;1496
8596;1497
8597;1499
8598;1501
8599;1501
8600;1502
8601;1500
8602;1498
8603;1496
8604;1495
8605;1496
8606;1498
8607;1499
8608;1503
8609;1506
8610;1508
8611;1510
8612;1511
8613;1513
8614;1514
8615;1516
8616;1517
8617;1516
8618;1505
8619;1498
8620;1492
8621;1482
8622;1479
8623;1476
8624;1473
8625;1469
8626;1464
8627;1459
8628;1451
8629;1450
8630;1449
8631;1453
8632;1456
8633;1459
8634;1468
8635;1473
8636;1477
8637;1482
8638;1492
8639;1496
8640;1501
8641;1508
8642;1510
8643;1513
8644;1514
8645;1512
8646;1505
8647;1485
8648;1476
8649;1468
8650;1461
8651;1453
8652;1451
8653;1451
8654;1455
8655;1458
8656;1462
8657;1471
8658;1475
8659;1478
8660;1481
8661;1485
8662;1487
8663;1489
8664;1491
8665;1492
8666;1492
8667;1494
8668;1494
8669;1494
8670;1495
8671;1495
8672;1495
8673;1495
8674;1495
8675;1496
8676;1497
8677;1497
8678;1496
8679;1496
8680;1495
8681;1494
8682;1494
8683;1492
8684;1483
8685;1479
8686;1473
8687;1457
8688;1448
8689;1441
8690;1431
8691;1429
8692;1429
8693;1433
8694;1436
8695;1439
8696;1438
8697;1441
8698;1439
8699;1436
8700;1434
8701;1432
8702;1430
8703;1426
8704;1425
8705;1424
8706;1421
8707;1414
8708;1411
8709;1406
8710;1396
8711;1393
8712;1390
8713;1386
8714;1387
8715;1388
8716;1394
8717;1397
8718;1396
8719;1395
8720;1394
8721;1394
8722;1394
8723;1398
8724;1401
8725;1404
8726;1411
8727;1413
8728;1410
8729;1401
8730;1385
8731;1379
8732;1376
8733;1374
8734;1375
8735;1377
8736;1386
8737;1391
8738;1398
8739;1408
8740;1406
8741;1403
8742;1401
8743;1398
8744;1398
8745;1399
8746;1403
8747;1406
8748;1410
8749;1420
8750;1425
8751;1430
8752;1432
8753;1431
8754;1428
8755;1422
8756;1411
8757;1407
8758;1405
8759;1406
8760;1408
8761;1412
8762;1421
8763;1422
8764;1421
8765;1418
8766;1409
8767;1402
8768;1394
8769;1382
8770;1378
8771;1376
8772;1376
8773;1379
8774;1384
8775;1390
8776;1405
8777;1413
8778;1420
8779;1436
8780;1443
8781;1450
8782;1462
8783;1466
8784;1464
8785;1457
8786;1453
8787;1450
8788;1447
8789;1444
8790;1444
8791;1445
8792;1450
8793;1453
8794;1457
8795;1465
8796;1468
8797;1472
8798;1475
8799;1474
8800;1473
8801;1469
8802;1455
8803;1446
8804;1438
8805;1428
8806;1426
8807;1426
8808;1430
8809;1432
8810;1435
8811;1440
8812;1450
8813;1456
8814;1462
8815;1473
8816;1478
8817;1482
8818;1489
8819;1492
8820;1495
8821;1498
8822;1501
8823;1498
8824;1491
8825;1475
8826;1467
8827;1461
8828;1449
8829;1445
8830;1442
8831;1442
8832;1444
8833;1447
8834;1449
8835;1447
8836;1445
8837;1444
8838;1444
8839;1445
8840;1447
8841;1453
8842;1456
8843;1459
8844;1463
8845;1470
8846;1470
8847;1468
8848;1461
8849;1458
8850;1456
8851;1453
8852;1452
8853;1453
8854;1450
8855;1448
8856;1447
8857;1446
8858;1447
8859;1449
8860;1452
8861;1458
8862;1459
8863;1460
8864;1458
8865;1456
8866;1456
8867;1454
8868;1451
8869;1451
8870;1450
8871;1449
8872;1447
8873;1446
8874;1445
8875;1446
8876;1447
8877;1450
8878;1452
8879;1454
8880;1456
8881;1462
8882;1465
8883;1468
8884;1474
8885;1477
8886;1480
8887;1486
8888;1488
8889;1491
8890;1493
8891;1498
8892;1500
8893;1502
8894;1506
8895;1508
8896;1509
8897;1511
8898;1511
8899;1511
8900;1506
8901;1502
8902;1497
8903;1492
8904;1481
8905;1475
8906;1466
8907;1452
8908;1446
8909;1438
8910;1424
8911;1416
8912;1409
8913;1404
8914;1398
8915;1398
8916;1399
8917;1405
8918;1409
8919;1414
8920;1425
8921;1429
8922;1435
8923;1444
8924;1448
8925;1451
8926;1452
8927;1451
8928;1451
8929;1450
8930;1450
8931;1447
8932;1446
8933;1439
8934;1433
8935;1427
8936;1407
8937;1399
8938;1395
8939;1391
8940;1390
8941;1390
8942;1391
8943;1398
8944;1403
8945;1409
8946;1421
8947;1424
8948;1424
8949;1424
8950;1414
8951;1406
8952;1394
8953;1368
8954;1354
8955;1344
8956;1333
8957;1331
8958;1332
8959;1337
8960;1343
8961;1350
8962;1358
8963;1376
8964;1385
8965;1393
8966;1407
8967;1413
8968;1418
8969;1426
8970;1428
8971;1430
8972;1433
8973;1437
8974;1439
8975;1441
8976;1446
8977;1446
8978;1445
8979;1433
8980;1427
8981;1422
8982;1415
8983;1411
8984;1408
8985;1405
8986;1400
8987;1397
8988;1395
8989;1396
8990;1397
8991;1401
8992;1410
8993;1414
8994;1419
8995;1425
8996;1434
8997;1439
8998;1442
8999;1447
9000;1448
9001;1449
9002;1444
9003;1436
9004;1428
9005;1412
9006;1404
9007;1397
9008;1393
9009;1387
9010;1382
9011;1377
9012;1363
9013;1357
9014;1353
9015;1350
9016;1350
9017;1352
9018;1354
9019;1361
9020;1366
9021;1371
9022;1384
9023;1391
9024;1399
9025;1413
9026;1419
9027;1425
9028;1435
9029;1440
9030;1445
9031;1450
9032;1457
9033;1458
9034;1458
9035;1460
9036;1462
9037;1463
9038;1467
9039;1468
9040;1467
9041;1467
9042;1460
9043;1457
9044;1455
9045;1453
9046;1453
9047;1455
9048;1460
9049;1463
9050;1467
9051;1473
9052;1476
9053;1477
9054;1478
9055;1478
9056;1472
9057;1459
9058;1437
9059;1426
9060;1418
9061;1407
9062;1404
9063;1403
9064;1405
9065;1410
9066;1415
9067;1419
9068;1429
9069;1435
9070;1440
9071;1449
9072;1452
9073;1454
9074;1456
9075;1453
9076;1447
9077;1441
9078;1431
9079;1428
9080;1425
9081;1425
9082;1425
9083;1425
9084;1427
9085;1427
9086;1427
9087;1426
9088;1425
9089;1425
9090;1425
9091;1429
9092;1431
9093;1433
9094;1436
9095;1439
9096;1442
9097;1443
9098;1441
9099;1439
9100;1437
9101;1435
9102;1434
9103;1435
9104;1432
9105;1428
9106;1425
9107;1417
9108;1413
9109;1409
9110;1402
9111;1400
9112;1398
9113;1397
9114;1391
9115;1387
9116;1385
9117;1382
9118;1378
9119;1376
9120;1376
9121;1377
9122;1379
9123;1383
9124;1392
9125;1397
9126;1402
9127;1407
9128;1410
9129;1412
9130;1418
9131;1421
9132;1424
9133;1428
9134;1432
9135;1436
9136;1439
9137;1446
9138;1449
9139;1451
9140;1457
9141;1459
9142;1461
9143;1466
9144;1468
9145;1470
9146;1467
9147;1456
9148;1448
9149;1441
9150;1425
9151;1416
9152;1410
9153;1403
9154;1402
9155;1403
9156;1404
9157;1403
9158;1404
9159;1406
9160;1411
9161;1415
9162;1418
9163;1426
9164;1430
9165;1433
9166;1441
9167;1444
9168;1447
9169;1448
9170;1444
9171;1440
9172;1437
9173;1430
9174;1423
9175;1418
9176;1410
9177;1407
9178;1407
9179;1405
9180;1406
9181;1407
9182;1409
9183;1413
9184;1416
9185;1419
9186;1426
9187;1428
9188;1431
9189;1430
9190;1426
9191;1422
9192;1417
9193;1406
9194;1401
9195;1397
9196;1394
9197;1394
9198;1395
9199;1400
9200;1403
9201;1405
9202;1406
9203;1401
9204;1391
9205;1380
9206;1361
9207;1355
9208;1349
9209;1342
9210;1341
9211;1342
9212;1348
9213;1353
9214;1358
9215;1367
9216;1371
9217;1376
9218;1382
9219;1394
9220;1399
9221;1405
9222;1416
9223;1421
9224;1427
9225;1438
9226;1444
9227;1450
9228;1455
9229;1465
9230;1470
9231;1474
9232;1483
9233;1486
9234;1489
9235;1493
9236;1493
9237;1492
9238;1491
9239;1491
9240;1491
9241;1492
9242;1492
9243;1492
9244;1493
9245;1497
9246;1498
9247;1500
9248;1504
9249;1505
9250;1505
9251;1505
9252;1499
9253;1494
9254;1488
9255;1478
9256;1475
9257;1473
9258;1472
9259;1473
9260;1475
9261;1477
9262;1485
9263;1489
9264;1493
9265;1500
9266;1503
9267;1505
9268;1507
9269;1508
9270;1508
9271;1507
9272;1506
9273;1505
9274;1505
9275;1504
9276;1504
9277;1503
9278;1501
9279;1499
9280;1497
9281;1494
9282;1494
9283;1493
9284;1493
9285;1494
9286;1494
9287;1495
9288;1497
9289;1498
9290;1499
9291;1498
9292;1494
9293;1489
9294;1476
9295;1469
9296;1463
9297;1454
9298;1448
9299;1440
9300;1432
9301;1412
9302;1395
9303;1376
9304;1344
9305;1333
9306;1326
9307;1317
9308;1318
9309;1320
9310;1326
9311;1342
9312;1352
9313;1362
9314;1384
9315;1394
9316;1405
9317;1419
9318;1423
9319;1429
9320;1435
9321;1437
9322;1439
9323;1442
9324;1447
9325;1450
9326;1452
9327;1459
9328;1462
9329;1464
9330;1466
9331;1466
9332;1461
9333;1454
9334;1440
9335;1431
9336;1424
9337;1416
9338;1415
9339;1415
9340;1420
9341;1425
9342;1429
9343;1443
9344;1450
9345;1457
9346;1463
9347;1474
9348;1478
9349;1483
9350;1490
9351;1493
9352;1495
9353;1500
9354;1502
9355;1504
9356;1507
9357;1511
9358;1513
9359;1516
9360;1520
9361;1521
9362;1523
9363;1525
9364;1524
9365;1522
9366;1515
9367;1513
9368;1510
9369;1507
9370;1505
9371;1504
9372;1503
9373;1504
9374;1505
9375;1506
9376;1508
9377;1510
9378;1511
9379;1512
9380;1513
9381;1510
9382;1507
9383;1502
9384;1499
9385;1494
9386;1484
9387;1480
9388;1476
9389;1467
9390;1457
9391;1447
9392;1437
9393;1424
9394;1420
9395;1418
9396;1419
9397;1419
9398;1419
9399;1419
9400;1421
9401;1424
9402;1434
9403;1439
9404;1444
9405;1449
9406;1459
9407;1463
9408;1467
9409;1473
9410;1472
9411;1465
9412;1443
9413;1432
9414;1424
9415;1417
9416;1410
9417;1410
9418;1412
9419;1420
9420;1426
9421;1433
9422;1448
9423;1455
9424;1462
9425;1475
9426;1480
9427;1486
9428;1490
9429;1497
9430;1500
9431;1503
9432;1508
9433;1512
9434;1516
9435;1523
9436;1526
9437;1527
9438;1528
9439;1530
9440;1530
9441;1531
9442;1531
9443;1530
9444;1528
9445;1526
9446;1526
9447;1525
9448;1525
9449;1525
9450;1525
9451;1524
9452;1523
9453;1524
9454;1524
9455;1524
9456;1524
9457;1523
9458;1522
9459;1521
9460;1521
9461;1520
9462;1514
9463;1510
9464;1505
9465;1495
9466;1490
9467;1485
9468;1475
9469;1472
9470;1470
9471;1469
9472;1470
9473;1472
9474;1473
9475;1477
9476;1478
9477;1480
9478;1485
9479;1488
9480;1493
9481;1500
9482;1503
9483;1506
9484;1508
9485;1504
9486;1498
9487;1493
9488;1481
9489;1473
9490;1468
9491;1463
9492;1464
9493;1467
9494;1476
9495;1483
9496;1490
9497;1498
9498;1511
9499;1516
9500;1520
9501;1526
9502;1528
9503;1530
9504;1529
9505;1526
9506;1521
9507;1511
9508;1486
9509;1474
9510;1463
9511;1445
9512;1440
9513;1437
9514;1437
9515;1438
9516;1441
9517;1450
9518;1457
9519;1462
9520;1469
9521;1481
9522;1487
9523;1492
9524;1501
9525;1505
9526;1508
9527;1514
9528;1516
9529;1519
9530;1522
9531;1526
9532;1524
9533;1519
9534;1508
9535;1503
9536;1500
9537;1497
9538;1497
9539;1498
9540;1504
9541;1509
9542;1514
9543;1519
9544;1530
9545;1535
9546;1540
9547;1544
9548;1540
9549;1534
9550;1519
9551;1512
9552;1507
9553;1501
9554;1500
9555;1500
9556;1501
9557;1505
9558;1509
9559;1512
9560;1520
9561;1524
9562;1528
9563;1533
9564;1534
9565;1536
9566;1538
9567;1538
9568;1536
9569;1534
9570;1529
9571;1527
9572;1526
9573;1522
9574;1514
9575;1503
9576;1479
9577;1468
9578;1457
9579;1441
9580;1417
9581;1409
9582;1405
9583;1399
9584;1397
9585;1396
9586;1398
9587;1401
9588;1406
9589;1419
9590;1426
9591;1434
9592;1442
9593;1458
9594;1465
9595;1472
9596;1485
9597;1491
9598;1497
9599;1506
9600;1511
9601;1515
9602;1518
9603;1526
9604;1530
9605;1535
9606;1543
9607;1545
9608;1545
9609;1536
9610;1533
9611;1531
9612;1528
9613;1528
9614;1530
9615;1531
9616;1536
9617;1538
9618;1540
9619;1543
9620;1542
9621;1538
9622;1525
9623;1520
9624;1516
9625;1510
9626;1509
9627;1509
9628;1509
9629;1512
9630;1515
9631;1518
9632;1524
9633;1526
9634;1528
9635;1533
9636;1535
9637;1535
9638;1535
9639;1536
9640;1536
9641;1533
9642;1527
9643;1523
9644;1517
9645;1508
9646;1505
9647;1503
9648;1502
9649;1503
9650;1505
9651;1508
9652;1514
9653;1517
9654;1521
9655;1527
9656;1530
9657;1532
9658;1535
9659;1536
9660;1536
9661;1535
9662;1536
9663;1536
9664;1537
9665;1540
9666;1542
9667;1545
9668;1549
9669;1552
9670;1553
9671;1548
9672;1539
9673;1529
9674;1508
9675;1499
9676;1493
9677;1489
9678;1486
9679;1488
9680;1491
9681;1500
9682;1505
9683;1511
9684;1524
9685;1529
9686;1535
9687;1539
9688;1546
9689;1548
9690;1551
9691;1555
9692;1556
9693;1558
9694;1558
9695;1557
9696;1553
9697;1541
9698;1536
9699;1528
9700;1519
9701;1495
9702;1481
9703;1469
9704;1450
9705;1443
9706;1440
9707;1443
9708;1448
9709;1454
9710;1462
9711;1479
9712;1488
9713;1497
9714;1514
9715;1521
9716;1528
9717;1540
9718;1545
9719;1549
9720;1555
9721;1558
9722;1560
9723;1562
9724;1566
9725;1568
9726;1568
9727;1566
9728;1562
9729;1556
9730;1546
9731;1541
9732;1536
9733;1527
9734;1523
9735;1521
9736;1520
9737;1522
9738;1523
9739;1526
9740;1533
9741;1536
9742;1540
9743;1544
9744;1543
9745;1542
9746;1542
9747;1542
9748;1541
9749;1541
9750;1538
9751;1535
9752;1532
9753;1527
9754;1524
9755;1522
9756;1519
9757;1516
9758;1513
9759;1508
9760;1501
9761;1497
9762;1492
9763;1477
9764;1470
9765;1463
9766;1452
9767;1448
9768;1444
9769;1443
9770;1444
9771;1447
9772;1451
9773;1463
9774;1470
9775;1476
9776;1488
9777;1494
9778;1500
9779;1511
9780;1517
9781;1522
9782;1527
9783;1538
9784;1542
9785;1547
9786;1556
9787;1560
9788;1564
9789;1568
9790;1567
9791;1567
9792;1567
9793;1568
9794;1566
9795;1561
9796;1547
9797;1536
9798;1524
9799;1496
9800;1483
9801;1472
9802;1458
9803;1452
9804;1450
9805;1451
9806;1459
9807;1464
9808;1470
9809;1473
9810;1470
9811;1465
9812;1458
9813;1457
9814;1457
9815;1460
9816;1463
9817;1466
9818;1470
9819;1480
9820;1485
9821;1490
9822;1497
9823;1501
9824;1504
9825;1510
9826;1512
9827;1514
9828;1517
9829;1525
9830;1528
9831;1532
9832;1539
9833;1541
9834;1541
9835;1540
9836;1538
9837;1537
9838;1538
9839;1539
9840;1541
9841;1543
9842;1547
9843;1549
9844;1549
9845;1550
9846;1552
9847;1554
9848;1560
9849;1564
9850;1567
9851;1575
9852;1579
9853;1582
9854;1585
9855;1592
9856;1595
9857;1597
9858;1600
9859;1601
9860;1602
9861;1601
9862;1601
9863;1600
9864;1600
9865;1599
9866;1597
9867;1595
9868;1590
9869;1587
9870;1585
9871;1579
9872;1576
9873;1573
9874;1566
9875;1562
9876;1557
9877;1552
9878;1543
9879;1540
9880;1537
9881;1531
9882;1528
9883;1526
9884;1521
9885;1518
9886;1517
9887;1517
9888;1519
9889;1521
9890;1524
9891;1532
9892;1536
9893;1540
9894;1548
9895;1551
9896;1554
9897;1558
9898;1560
9899;1561
9900;1562
9901;1566
9902;1568
9903;1569
9904;1572
9905;1573
9906;1575
9907;1578
9908;1578
9909;1579
9910;1570
9911;1562
9912;1551
9913;1534
9914;1496
9915;1478
9916;1463
9917;1442
9918;1435
9919;1432
9920;1433
9921;1437
9922;1443
9923;1450
9924;1466
9925;1474
9926;1482
9927;1496
9928;1502
9929;1507
9930;1516
9931;1521
9932;1525
9933;1533
9934;1536
9935;1541
9936;1545
9937;1551
9938;1554
9939;1556
9940;1554
9941;1550
9942;1544
9943;1534
9944;1530
9945;1525
9946;1518
9947;1508
9948;1504
9949;1502
9950;1500
9951;1500
9952;1498
9953;1491
9954;1487
9955;1484
9956;1481
9957;1481
9958;1483
9959;1484
9960;1490
9961;1494
9962;1497
9963;1504
9964;1507
9965;1511
9966;1518
9967;1521
9968;1524
9969;1530
9970;1532
9971;1534
9972;1535
9973;1534
9974;1529
9975;1525
9976;1509
9977;1499
9978;1491
9979;1477
9980;1473
9981;1471
9982;1472
9983;1476
9984;1481
9985;1486
9986;1498
9987;1503
9988;1509
9989;1519
9990;1523
9991;1528
9992;1532
9993;1538
9994;1541
9995;1543
9996;1548
9997;1550
9998;1550
9999;1533
10000;1522
10001;1512
10002;1495
10003;1490
10004;1487
10005;1486
10006;1488
10007;1490
10008;1493
10009;1503
10010;1508
10011;1512
10012;1518
10013;1520
10014;1520
10015;1516
10016;1503
10017;1496
10018;1488
10019;1479
10020;1477
10021;1478
10022;1482
10023;1486
10024;1491
10025;1501
10026;1507
10027;1514
10028;1520
10029;1531
10030;1536
10031;1541
10032;1549
10033;1553
10034;1556
10035;1560
10036;1559
10037;1558
10038;1555
10039;1552
10040;1549
10041;1546
10042;1542
10043;1541
10044;1540
10045;1541
10046;1542
10047;1542
10048;1541
10049;1541
10050;1541
10051;1543
10052;1544
10053;1544
10054;1545
10055;1545
10056;1546
10057;1545
10058;1544
10059;1543
10060;1541
10061;1540
10062;1542
10063;1544
10064;1547
10065;1553
10066;1556
10067;1559
10068;1565
10069;1568
10070;1571
10071;1576
10072;1578
10073;1580
10074;1581
10075;1581
10076;1582
10077;1583
10078;1584
10079;1582
10080;1576
10081;1556
10082;1544
10083;1533
10084;1509
10085;1498
10086;1489
10087;1481
10088;1480
10089;1482
10090;1484
10091;1486
10092;1488
10093;1491
10094;1500
10095;1504
10096;1509
10097;1516
10098;1519
10099;1522
10100;1525
10101;1532
10102;1536
10103;1537
10104;1540
10105;1542
10106;1544
10107;1550
10108;1554
10109;1557
10110;1563
10111;1566
10112;1569
10113;1573
10114;1579
10115;1582
10116;1582
10117;1580
10118;1576
10119;1570
10120;1546
10121;1531
10122;1512
10123;1490
10124;1454
10125;1441
10126;1432
10127;1427
10128;1428
10129;1433
10130;1448
10131;1458
10132;1469
10133;1490
10134;1501
10135;1510
10136;1517
10137;1529
10138;1535
10139;1539
10140;1546
10141;1549
10142;1552
10143;1557
10144;1559
10145;1561
10146;1566
10147;1569
10148;1572
10149;1574
10150;1578
10151;1580
10152;1583
10153;1589
10154;1592
10155;1595
10156;1600
10157;1602
10158;1605
10159;1607
10160;1611
10161;1612
10162;1614
10163;1618
10164;1619
10165;1621
10166;1624
10167;1626
10168;1628
10169;1630
10170;1631
10171;1632
10172;1632
10173;1634
10174;1634
10175;1635
10176;1636
10177;1635
10178;1634
10179;1625
10180;1616
10181;1604
10182;1593
10183;1576
10184;1570
10185;1565
10186;1558
10187;1556
10188;1555
10189;1557
10190;1560
10191;1563
10192;1570
10193;1573
10194;1577
10195;1580
10196;1585
10197;1587
10198;1589
10199;1592
10200;1594
10201;1597
10202;1602
10203;1604
10204;1606
10205;1607
10206;1607
10207;1608
10208;1608
10209;1610
10210;1608
10211;1606
10212;1600
10213;1597
10214;1595
10215;1591
10216;1588
10217;1586
10218;1583
10219;1564
10220;1553
10221;1541
10222;1514
10223;1498
10224;1483
10225;1455
10226;1442
10227;1430
10228;1419
10229;1404
10230;1401
10231;1401
10232;1410
10233;1417
10234;1426
10235;1446
10236;1456
10237;1466
10238;1476
10239;1494
10240;1503
10241;1513
10242;1530
10243;1537
10244;1545
10245;1558
10246;1564
10247;1569
10248;1577
10249;1579
10250;1581
10251;1582
10252;1574
10253;1566
10254;1557
10255;1539
10256;1530
10257;1521
10258;1498
10259;1488
10260;1481
10261;1474
10262;1475
10263;1477
10264;1480
10265;1487
10266;1490
10267;1494
10268;1504
10269;1507
10270;1510
10271;1516
10272;1519
10273;1524
10274;1532
10275;1537
10276;1542
10277;1547
10278;1559
10279;1565
10280;1569
10281;1575
10282;1577
10283;1578
10284;1581
10285;1582
10286;1581
10287;1580
10288;1578
10289;1579
10290;1580
10291;1583
10292;1585
10293;1587
10294;1590
10295;1592
10296;1591
10297;1587
10298;1582
10299;1574
10300;1566
10301;1552
10302;1547
10303;1544
10304;1543
10305;1545
10306;1548
10307;1554
10308;1553
10309;1552
10310;1552
10311;1554
10312;1556
10313;1559
10314;1567
10315;1570
10316;1575
10317;1580
10318;1581
10319;1581
10320;1584
10321;1586
10322;1589
10323;1592
10324;1596
10325;1599
10326;1601
10327;1602
10328;1598
10329;1593
10330;1584
10331;1582
10332;1579
10333;1569
10334;1562
10335;1557
10336;1553
10337;1549
10338;1549
10339;1550
10340;1555
10341;1559
10342;1560
10343;1561
10344;1560
10345;1562
10346;1564
10347;1568
10348;1571
10349;1572
10350;1572
10351;1570
10352;1568
10353;1568
10354;1567
10355;1566
10356;1565
10357;1567
10358;1568
10359;1571
10360;1573
10361;1576
10362;1579
10363;1584
10364;1587
10365;1588
10366;1585
10367;1582
10368;1580
10369;1577
10370;1576
10371;1575
10372;1575
10373;1577
10374;1578
10375;1579
10376;1582
10377;1584
10378;1584
10379;1582
10380;1582
10381;1582
10382;1582
10383;1584
10384;1586
10385;1589
10386;1591
10387;1592
10388;1594
10389;1599
10390;1601
10391;1603
10392;1607
10393;1609
10394;1611
10395;1612
10396;1615
10397;1613
10398;1606
10399;1576
10400;1560
10401;1547
10402;1529
10403;1523
10404;1521
10405;1520
10406;1526
10407;1531
10408;1537
10409;1552
10410;1557
10411;1558
10412;1558
10413;1558
10414;1558
10415;1558
10416;1558
10417;1557
10418;1556
10419;1556
10420;1556
10421;1556
10422;1557
10423;1557
10424;1555
10425;1554
10426;1554
10427;1555
10428;1557
10429;1560
10430;1561
10431;1560
10432;1557
10433;1554
10434;1553
10435;1555
10436;1556
10437;1559
10438;1567
10439;1568
10440;1567
10441;1565
10442;1564
10443;1563
10444;1563
10445;1562
10446;1561
10447;1558
10448;1546
10449;1534
10450;1522
10451;1502
10452;1496
10453;1491
10454;1487
10455;1483
10456;1484
10457;1486
10458;1494
10459;1499
10460;1506
10461;1516
10462;1517
10463;1516
10464;1513
10465;1512
10466;1511
10467;1511
10468;1514
10469;1517
10470;1519
10471;1526
10472;1530
10473;1533
10474;1532
10475;1531
10476;1530
10477;1531
10478;1535
10479;1538
10480;1541
10481;1550
10482;1555
10483;1561
10484;1574
10485;1576
10486;1579
10487;1586
10488;1589
10489;1594
10490;1598
10491;1606
10492;1609
10493;1613
10494;1619
10495;1620
10496;1620
10497;1621
10498;1621
10499;1622
10500;1622
10501;1624
10502;1624
10503;1626
10504;1631
10505;1633
10506;1635
10507;1640
10508;1642
10509;1644
10510;1645
10511;1643
10512;1639
10513;1634
10514;1619
10515;1610
10516;1602
10517;1590
10518;1586
10519;1582
10520;1570
10521;1558
10522;1544
10523;1531
10524;1509
10525;1501
10526;1496
10527;1494
10528;1496
10529;1499
10530;1512
10531;1519
10532;1527
10533;1535
10534;1553
10535;1563
10536;1571
10537;1581
10538;1584
10539;1586
10540;1591
10541;1591
10542;1592
10543;1595
10544;1598
10545;1601
10546;1604
10547;1610
10548;1614
10549;1617
10550;1612
10551;1604
10552;1594
10553;1566
10554;1553
10555;1542
10556;1524
10557;1518
10558;1516
10559;1513
10560;1509
10561;1509
10562;1510
10563;1514
10564;1517
10565;1521
10566;1530
10567;1535
10568;1540
10569;1545
10570;1554
10571;1559
10572;1564
10573;1573
10574;1577
10575;1582
10576;1590
10577;1594
10578;1597
10579;1602
10580;1603
10581;1600
10582;1594
10583;1569
10584;1553
10585;1541
10586;1524
10587;1519
10588;1517
10589;1519
10590;1523
10591;1528
10592;1534
10593;1547
10594;1554
10595;1561
10596;1573
10597;1577
10598;1581
10599;1588
10600;1589
10601;1589
10602;1592
10603;1593
10604;1595
10605;1597
10606;1602
10607;1606
10608;1609
10609;1615
10610;1618
10611;1620
10612;1621
10613;1617
10614;1612
10615;1609
10616;1601
10617;1595
10618;1590
10619;1583
10620;1582
10621;1583
10622;1587
10623;1590
10624;1594
10625;1600
10626;1600
10627;1599
10628;1598
10629;1592
10630;1586
10631;1576
10632;1546
10633;1532
10634;1518
10635;1487
10636;1476
10637;1468
10638;1463
10639;1460
10640;1461
10641;1463
10642;1466
10643;1462
10644;1459
10645;1454
10646;1453
10647;1453
10648;1456
10649;1458
10650;1461
10651;1466
10652;1478
10653;1484
10654;1489
10655;1500
10656;1506
10657;1512
10658;1524
10659;1530
10660;1535
10661;1540
10662;1541
10663;1539
10664;1538
10665;1532
10666;1530
10667;1529
10668;1531
10669;1529
10670;1525
10671;1515
10672;1508
10673;1499
10674;1492
10675;1483
10676;1480
10677;1473
10678;1462
10679;1460
10680;1459
10681;1462
10682;1462
10683;1463
10684;1469
10685;1473
10686;1477
10687;1482
10688;1493
10689;1499
10690;1505
10691;1518
10692;1524
10693;1528
10694;1528
10695;1527
10696;1527
10697;1528
10698;1530
10699;1530
10700;1531
10701;1533
10702;1535
10703;1537
10704;1537
10705;1533
10706;1529
10707;1523
10708;1511
10709;1508
10710;1505
10711;1502
10712;1498
10713;1498
10714;1496
10715;1496
10716;1498
10717;1505
10718;1509
10719;1514
10720;1518
10721;1528
10722;1533
10723;1539
10724;1549
10725;1554
10726;1558
10727;1567
10728;1571
10729;1574
10730;1577
10731;1575
10732;1571
10733;1564
10734;1539
10735;1526
10736;1514
10737;1499
10738;1494
10739;1493
10740;1496
10741;1500
10742;1506
10743;1512
10744;1522
10745;1523
10746;1524
10747;1524
10748;1525
10749;1525
10750;1528
10751;1531
10752;1533
10753;1538
10754;1536
10755;1534
10756;1531
10757;1524
10758;1521
10759;1520
10760;1521
10761;1522
10762;1525
10763;1532
10764;1535
10765;1538
10766;1532
10767;1527
10768;1522
10769;1518
10770;1513
10771;1513
10772;1513
10773;1517
10774;1520
10775;1524
10776;1535
10777;1542
10778;1549
10779;1561
10780;1563
10781;1564
10782;1563
10783;1558
10784;1552
10785;1543
10786;1516
10787;1503
10788;1491
10789;1471
10790;1465
10791;1461
10792;1460
10793;1463
10794;1467
10795;1473
10796;1486
10797;1493
10798;1500
10799;1513
10800;1518
10801;1524
10802;1533
10803;1536
10804;1537
10805;1537
10806;1541
10807;1544
10808;1548
10809;1557
10810;1561
10811;1565
10812;1572
10813;1570
10814;1566
10815;1554
10816;1548
10817;1542
10818;1536
10819;1523
10820;1515
10821;1507
10822;1494
10823;1491
10824;1490
10825;1493
10826;1496
10827;1499
10828;1501
10829;1505
10830;1507
10831;1507
10832;1507
10833;1505
10834;1503
10835;1501
10836;1499
10837;1495
10838;1483
10839;1477
10840;1472
10841;1468
10842;1460
10843;1455
10844;1451
10845;1448
10846;1450
10847;1450
10848;1449
10849;1448
10850;1448
10851;1451
10852;1459
10853;1465
10854;1468
10855;1466
10856;1459
10857;1451
10858;1426
10859;1412
10860;1402
10861;1390
10862;1389
10863;1390
10864;1394
10865;1408
10866;1418
10867;1429
10868;1452
10869;1463
10870;1473
10871;1488
10872;1494
10873;1500
10874;1505
10875;1514
10876;1519
10877;1523
10878;1532
10879;1537
10880;1541
10881;1550
10882;1553
10883;1556
10884;1557
10885;1557
10886;1557
10887;1558
10888;1561
10889;1562
10890;1563
10891;1565
10892;1565
10893;1565
10894;1561
10895;1557
10896;1554
10897;1548
10898;1546
10899;1546
10900;1546
10901;1549
10902;1550
10903;1550
10904;1548
10905;1546
10906;1543
10907;1538
10908;1537
10909;1537
10910;1537
10911;1539
10912;1541
10913;1544
10914;1548
10915;1547
10916;1547
10917;1532
10918;1522
10919;1510
10920;1490
10921;1482
10922;1473
10923;1462
