index;adc
0;1487
1;1487
2;1487
3;1487
4;1486
5;1486
6;1485
7;1485
8;1485
9;1484
10;1484
11;1483
12;1483
13;1483
14;1483
15;1482
16;1482
17;1482
18;1481
19;1481
20;1480
21;1480
22;1480
23;1480
24;1479
25;1479
26;1480
27;1479
28;1480
29;1480
30;1480
31;1480
32;1481
33;1481
34;1482
35;1482
36;1482
37;1482
38;1483
39;1483
40;1483
41;1484
42;1484
43;1484
44;1485
45;1485
46;1485
47;1485
48;1485
49;1486
50;1486
51;1486
52;1485
53;1485
54;1485
55;1485
56;1484
57;1484
58;1483
59;1483
60;1483
61;1482
62;1482
63;1482
64;1481
65;1481
66;1481
67;1480
68;1480
69;1480
70;1479
71;1479
72;1479
73;1479
74;1479
75;1478
76;1478
77;1478
78;1478
79;1479
80;1479
81;1479
82;1479
83;1479
84;1480
85;1480
86;1481
87;1482
88;1481
89;1482
90;1482
91;1482
92;1483
93;1483
94;1483
95;1484
96;1484
97;1484
98;1484
99;1485
100;1485
101;1485
102;1484
103;1484
104;1484
105;1484
106;1483
107;1483
108;1483
109;1482
110;1482
111;1481
112;1482
113;1481
114;1481
115;1480
116;1480
117;1480
118;1479
119;1479
120;1478
121;1478
122;1478
123;1478
124;1477
125;1478
126;1478
127;1478
128;1478
129;1478
130;1478
131;1478
132;1479
133;1479
134;1479
135;1480
136;1480
137;1480
138;1481
139;1481
140;1482
141;1482
142;1482
143;1483
144;1483
145;1483
146;1484
147;1484
148;1484
149;1484
150;1484
151;1484
152;1484
153;1484
154;1484
155;1483
156;1483
157;1483
158;1483
159;1482
160;1482
161;1482
162;1482
163;1481
164;1481
165;1480
166;1480
167;1480
168;1480
169;1479
170;1479
171;1478
172;1478
173;1478
174;1478
175;1478
176;1478
177;1478
178;1477
179;1478
180;1478
181;1478
182;1479
183;1479
184;1479
185;1480
186;1480
187;1480
188;1481
189;1481
190;1482
191;1482
192;1482
193;1483
194;1483
195;1484
196;1484
197;1484
198;1484
199;1485
200;1485
201;1485
202;1485
203;1485
204;1484
205;1484
206;1484
207;1484
208;1483
209;1483
210;1483
211;1482
212;1482
213;1482
214;1481
215;1481
216;1481
217;1480
218;1480
219;1479
220;1479
221;1479
222;1479
223;1478
224;1478
225;1478
226;1478
227;1478
228;1478
229;1478
230;1479
231;1479
232;1479
233;1480
234;1480
235;1481
236;1481
237;1481
238;1482
239;1482
240;1483
241;1483
242;1483
243;1483
244;1484
245;1484
246;1485
247;1485
248;1485
249;1485
250;1486
251;1486
252;1485
253;1486
254;1486
255;1485
256;1485
257;1485
258;1485
259;1485
260;1484
261;1484
262;1484
263;1483
264;1483
265;1482
266;1482
267;1482
268;1482
269;1481
270;1481
271;1481
272;1481
273;1480
274;1480
275;1480
276;1479
277;1480
278;1480
279;1480
280;1480
281;1480
282;1481
283;1481
284;1481
285;1482
286;1482
287;1482
288;1483
289;1483
290;1483
291;1484
292;1484
293;1485
294;1485
295;1485
296;1485
297;1486
298;1486
299;1486
300;1487
301;1487
302;1487
303;1487
304;1486
305;1487
306;1486
307;1486
308;1486
309;1485
310;1485
311;1485
312;1484
313;1484
314;1484
315;1483
316;1483
317;1483
318;1482
319;1482
320;1482
321;1481
322;1481
323;1481
324;1481
325;1480
326;1481
327;1481
328;1481
329;1481
330;1481
331;1481
332;1482
333;1482
334;1482
335;1483
336;1482
337;1483
338;1484
339;1484
340;1485
341;1485
342;1485
343;1485
344;1486
345;1486
346;1487
347;1487
348;1487
349;1488
350;1488
351;1488
352;1488
353;1488
354;1488
355;1488
356;1488
357;1488
358;1488
359;1488
360;1487
361;1486
362;1486
363;1486
364;1486
365;1486
366;1485
367;1485
368;1485
369;1484
370;1484
371;1484
372;1484
373;1483
374;1483
375;1482
376;1483
377;1483
378;1483
379;1483
380;1483
381;1483
382;1483
383;1484
384;1484
385;1484
386;1485
387;1485
388;1485
389;1486
390;1486
391;1486
392;1487
393;1488
394;1488
395;1488
396;1489
397;1489
398;1489
399;1489
400;1489
401;1490
402;1490
403;1490
404;1490
405;1489
406;1489
407;1489
408;1489
409;1489
410;1488
411;1488
412;1488
413;1488
414;1487
415;1487
416;1487
417;1486
418;1486
419;1485
420;1485
421;1485
422;1485
423;1484
424;1484
425;1484
426;1484
427;1484
428;1484
429;1484
430;1484
431;1484
432;1484
433;1485
434;1485
435;1486
436;1486
437;1486
438;1487
439;1487
440;1488
441;1488
442;1488
443;1489
444;1489
445;1490
446;1490
447;1491
448;1491
449;1491
450;1491
451;1491
452;1492
453;1492
454;1492
455;1492
456;1492
457;1491
458;1491
459;1491
460;1491
461;1490
462;1490
463;1490
464;1490
465;1489
466;1489
467;1489
468;1489
469;1489
470;1488
471;1488
472;1488
473;1487
474;1487
475;1487
476;1487
477;1487
478;1487
479;1487
480;1488
481;1488
482;1488
483;1489
484;1489
485;1490
486;1490
487;1490
488;1491
489;1492
490;1492
491;1493
492;1493
493;1493
494;1494
495;1495
496;1495
497;1496
498;1496
499;1496
500;1498
501;1497
502;1498
503;1498
504;1498
505;1498
506;1498
507;1498
508;1497
509;1498
510;1497
511;1497
512;1497
513;1496
514;1496
515;1496
516;1496
517;1496
518;1496
519;1495
520;1495
521;1495
522;1495
523;1495
524;1494
525;1495
526;1494
527;1495
528;1495
529;1495
530;1495
531;1495
532;1496
533;1496
534;1497
535;1497
536;1497
537;1498
538;1499
539;1499
540;1500
541;1500
542;1501
543;1502
544;1502
545;1502
546;1503
547;1503
548;1504
549;1505
550;1505
551;1505
552;1506
553;1506
554;1506
555;1506
556;1507
557;1506
558;1506
559;1506
560;1506
561;1507
562;1506
563;1506
564;1506
565;1505
566;1505
567;1505
568;1505
569;1505
570;1505
571;1505
572;1504
573;1504
574;1504
575;1504
576;1504
577;1504
578;1504
579;1505
580;1505
581;1505
582;1506
583;1506
584;1507
585;1507
586;1508
587;1508
588;1508
589;1510
590;1510
591;1511
592;1512
593;1512
594;1512
595;1513
596;1514
597;1514
598;1515
599;1515
600;1516
601;1516
602;1517
603;1517
604;1517
605;1517
606;1517
607;1517
608;1517
609;1517
610;1517
611;1517
612;1517
613;1517
614;1516
615;1516
616;1516
617;1516
618;1516
619;1516
620;1516
621;1515
622;1515
623;1515
624;1515
625;1515
626;1515
627;1515
628;1515
629;1516
630;1516
631;1516
632;1517
633;1517
634;1517
635;1518
636;1518
637;1519
638;1520
639;1520
640;1520
641;1521
642;1521
643;1522
644;1522
645;1523
646;1523
647;1524
648;1525
649;1525
650;1525
651;1526
652;1526
653;1526
654;1526
655;1526
656;1526
657;1526
658;1526
659;1525
660;1525
661;1525
662;1525
663;1525
664;1524
665;1523
666;1523
667;1523
668;1523
669;1522
670;1522
671;1522
672;1522
673;1521
674;1521
675;1521
676;1521
677;1521
678;1520
679;1521
680;1520
681;1521
682;1521
683;1521
684;1521
685;1522
686;1522
687;1523
688;1523
689;1523
690;1524
691;1524
692;1524
693;1525
694;1525
695;1526
696;1525
697;1526
698;1526
699;1526
700;1527
701;1527
702;1527
703;1527
704;1527
705;1527
706;1527
707;1526
708;1526
709;1526
710;1526
711;1525
712;1525
713;1524
714;1524
715;1524
716;1523
717;1523
718;1522
719;1522
720;1521
721;1521
722;1520
723;1520
724;1519
725;1519
726;1519
727;1518
728;1518
729;1518
730;1518
731;1517
732;1518
733;1518
734;1518
735;1518
736;1518
737;1519
738;1519
739;1519
740;1520
741;1520
742;1520
743;1520
744;1520
745;1521
746;1520
747;1521
748;1521
749;1521
750;1521
751;1521
752;1521
753;1521
754;1521
755;1521
756;1521
757;1521
758;1520
759;1520
760;1519
761;1519
762;1519
763;1518
764;1518
765;1517
766;1517
767;1516
768;1516
769;1516
770;1515
771;1514
772;1514
773;1513
774;1513
775;1513
776;1512
777;1512
778;1512
779;1511
780;1511
781;1510
782;1510
783;1511
784;1511
785;1510
786;1511
787;1511
788;1511
789;1511
790;1511
791;1511
792;1512
793;1512
794;1512
795;1512
796;1513
797;1513
798;1513
799;1513
800;1513
801;1514
802;1514
803;1513
804;1514
805;1514
806;1513
807;1513
808;1513
809;1513
810;1512
811;1512
812;1511
813;1512
814;1511
815;1510
816;1510
817;1510
818;1509
819;1508
820;1508
821;1507
822;1507
823;1507
824;1506
825;1505
826;1505
827;1505
828;1505
829;1503
830;1504
831;1504
832;1504
833;1504
834;1504
835;1505
836;1505
837;1505
838;1506
839;1506
840;1506
841;1507
842;1507
843;1507
844;1508
845;1509
846;1509
847;1509
848;1509
849;1510
850;1510
851;1511
852;1511
853;1511
854;1511
855;1512
856;1511
857;1511
858;1511
859;1511
860;1511
861;1511
862;1510
863;1510
864;1509
865;1509
866;1509
867;1508
868;1508
869;1508
870;1507
871;1507
872;1506
873;1506
874;1505
875;1505
876;1505
877;1505
878;1504
879;1504
880;1504
881;1504
882;1504
883;1504
884;1504
885;1504
886;1504
887;1504
888;1505
889;1505
890;1505
891;1506
892;1506
893;1506
894;1506
895;1507
896;1507
897;1507
898;1508
899;1508
900;1508
901;1508
902;1509
903;1509
904;1509
905;1509
906;1509
907;1509
908;1509
909;1508
910;1508
911;1508
912;1507
913;1507
914;1507
915;1506
916;1506
917;1505
918;1505
919;1505
920;1504
921;1504
922;1504
923;1503
924;1503
925;1502
926;1502
927;1501
928;1501
929;1501
930;1501
931;1500
932;1500
933;1501
934;1500
935;1500
936;1501
937;1501
938;1501
939;1501
940;1502
941;1502
942;1502
943;1502
944;1503
945;1503
946;1503
947;1503
948;1504
949;1504
950;1504
951;1505
952;1505
953;1505
954;1505
955;1505
956;1505
957;1505
958;1505
959;1505
960;1505
961;1504
962;1504
963;1504
964;1503
965;1502
966;1502
967;1502
968;1501
969;1501
970;1500
971;1500
972;1500
973;1499
974;1499
975;1498
976;1498
977;1497
978;1497
979;1497
980;1497
981;1497
982;1496
983;1496
984;1496
985;1496
986;1496
987;1497
988;1497
989;1497
990;1497
991;1498
992;1498
993;1498
994;1498
995;1499
996;1499
997;1499
998;1500
999;1500
1000;1500
1001;1501
1002;1501
1003;1501
1004;1501
1005;1501
1006;1501
1007;1501
1008;1501
1009;1501
1010;1500
1011;1500
1012;1500
1013;1500
1014;1499
1015;1499
1016;1498
1017;1498
1018;1497
1019;1497
1020;1497
1021;1496
1022;1496
1023;1496
1024;1495
1025;1495
1026;1495
1027;1494
1028;1494
1029;1493
1030;1493
1031;1493
1032;1493
1033;1493
1034;1493
1035;1493
1036;1493
1037;1494
1038;1494
1039;1494
1040;1494
1041;1495
1042;1495
1043;1495
1044;1496
1045;1496
1046;1496
1047;1497
1048;1497
1049;1498
1050;1497
1051;1498
1052;1499
1053;1499
1054;1500
1055;1500
1056;1500
1057;1500
1058;1499
1059;1500
1060;1499
1061;1499
1062;1499
1063;1498
1064;1498
1065;1498
1066;1498
1067;1497
1068;1497
1069;1497
1070;1497
1071;1496
1072;1496
1073;1496
1074;1495
1075;1495
1076;1495
1077;1494
1078;1494
1079;1494
1080;1494
1081;1493
1082;1494
1083;1493
1084;1493
1085;1494
1086;1494
1087;1494
1088;1494
1089;1494
1090;1495
1091;1495
1092;1496
1093;1496
1094;1496
1095;1497
1096;1497
1097;1498
1098;1498
1099;1498
1100;1499
1101;1499
1102;1500
1103;1500
1104;1500
1105;1500
1106;1500
1107;1501
1108;1501
1109;1501
1110;1500
1111;1501
1112;1500
1113;1500
1114;1499
1115;1499
1116;1499
1117;1498
1118;1499
1119;1498
1120;1498
1121;1497
1122;1497
1123;1497
1124;1497
1125;1496
1126;1496
1127;1495
1128;1495
1129;1494
1130;1495
1131;1494
1132;1494
1133;1494
1134;1494
1135;1494
1136;1494
1137;1495
1138;1495
1139;1495
1140;1495
1141;1496
1142;1496
1143;1496
1144;1497
1145;1496
1146;1498
1147;1498
1148;1498
1149;1498
1150;1499
1151;1499
1152;1500
1153;1500
1154;1500
1155;1500
1156;1500
1157;1500
1158;1500
1159;1500
1160;1500
1161;1500
1162;1499
1163;1499
1164;1499
1165;1499
1166;1498
1167;1498
1168;1497
1169;1497
1170;1496
1171;1496
1172;1495
1173;1495
1174;1495
1175;1494
1176;1494
1177;1493
1178;1493
1179;1493
1180;1492
1181;1492
1182;1492
1183;1492
1184;1491
1185;1492
1186;1492
1187;1492
1188;1492
1189;1492
1190;1492
1191;1492
1192;1493
1193;1493
1194;1493
1195;1494
1196;1494
1197;1494
1198;1495
1199;1495
1200;1495
1201;1495
1202;1496
1203;1496
1204;1496
1205;1496
1206;1496
1207;1496
1208;1497
1209;1496
1210;1496
1211;1496
1212;1496
1213;1495
1214;1495
1215;1494
1216;1494
1217;1494
1218;1493
1219;1493
1220;1493
1221;1492
1222;1492
1223;1491
1224;1491
1225;1490
1226;1490
1227;1489
1228;1489
1229;1489
1230;1489
1231;1488
1232;1488
1233;1488
1234;1488
1235;1488
1236;1488
1237;1488
1238;1489
1239;1489
1240;1488
1241;1489
1242;1489
1243;1490
1244;1490
1245;1490
1246;1490
1247;1491
1248;1491
1249;1492
1250;1492
1251;1492
1252;1492
1253;1493
1254;1493
1255;1493
1256;1493
1257;1493
1258;1493
1259;1493
1260;1493
1261;1493
1262;1493
1263;1492
1264;1492
1265;1492
1266;1491
1267;1491
1268;1490
1269;1490
1270;1490
1271;1489
1272;1489
1273;1488
1274;1488
1275;1487
1276;1487
1277;1486
1278;1486
1279;1486
1280;1485
1281;1485
1282;1485
1283;1485
1284;1484
1285;1484
1286;1484
1287;1484
1288;1484
1289;1484
1290;1485
1291;1485
1292;1485
1293;1486
1294;1486
1295;1486
1296;1486
1297;1486
1298;1486
1299;1487
1300;1487
1301;1488
1302;1487
1303;1488
1304;1488
1305;1489
1306;1488
1307;1489
1308;1489
1309;1489
1310;1489
1311;1488
1312;1488
1313;1488
1314;1488
1315;1487
1316;1487
1317;1487
1318;1487
1319;1486
1320;1485
1321;1485
1322;1484
1323;1484
1324;1483
1325;1484
1326;1483
1327;1483
1328;1482
1329;1482
1330;1481
1331;1481
1332;1481
1333;1481
1334;1480
1335;1480
1336;1480
1337;1480
1338;1481
1339;1481
1340;1481
1341;1481
1342;1481
1343;1482
1344;1482
1345;1482
1346;1483
1347;1483
1348;1483
1349;1484
1350;1483
1351;1484
1352;1484
1353;1485
1354;1485
1355;1485
1356;1485
1357;1486
1358;1486
1359;1486
1360;1486
1361;1486
1362;1485
1363;1485
1364;1485
1365;1484
1366;1484
1367;1484
1368;1483
1369;1483
1370;1483
1371;1482
1372;1482
1373;1481
1374;1481
1375;1481
1376;1480
1377;1480
1378;1480
1379;1479
1380;1479
1381;1478
1382;1478
1383;1478
1384;1478
1385;1477
1386;1478
1387;1478
1388;1478
1389;1478
1390;1478
1391;1479
1392;1479
1393;1479
1394;1479
1395;1480
1396;1480
1397;1481
1398;1481
1399;1481
1400;1482
1401;1482
1402;1482
1403;1483
1404;1483
1405;1484
1406;1484
1407;1484
1408;1484
1409;1484
1410;1484
1411;1484
1412;1484
1413;1484
1414;1484
1415;1483
1416;1483
1417;1482
1418;1482
1419;1482
1420;1482
1421;1481
1422;1481
1423;1481
1424;1480
1425;1480
1426;1480
1427;1479
1428;1479
1429;1479
1430;1478
1431;1478
1432;1478
1433;1478
1434;1478
1435;1478
1436;1478
1437;1478
1438;1478
1439;1478
1440;1478
1441;1479
1442;1479
1443;1480
1444;1480
1445;1480
1446;1481
1447;1481
1448;1482
1449;1482
1450;1482
1451;1482
1452;1483
1453;1483
1454;1484
1455;1484
1456;1484
1457;1484
1458;1485
1459;1485
1460;1485
1461;1485
1462;1485
1463;1485
1464;1484
1465;1484
1466;1484
1467;1483
1468;1483
1469;1483
1470;1483
1471;1482
1472;1482
1473;1482
1474;1481
1475;1481
1476;1481
1477;1480
1478;1480
1479;1480
1480;1479
1481;1479
1482;1479
1483;1478
1484;1478
1485;1478
1486;1478
1487;1478
1488;1478
1489;1479
1490;1479
1491;1479
1492;1479
1493;1480
1494;1481
1495;1481
1496;1481
1497;1482
1498;1482
1499;1482
1500;1483
1501;1483
1502;1484
1503;1484
1504;1484
1505;1485
1506;1485
1507;1485
1508;1486
1509;1486
1510;1486
1511;1486
1512;1486
1513;1486
1514;1486
1515;1485
1516;1485
1517;1484
1518;1484
1519;1484
1520;1484
1521;1483
1522;1483
1523;1482
1524;1482
1525;1482
1526;1482
1527;1481
1528;1481
1529;1480
1530;1480
1531;1480
1532;1480
1533;1479
1534;1479
1535;1479
1536;1479
1537;1479
1538;1479
1539;1479
1540;1480
1541;1480
1542;1480
1543;1481
1544;1480
1545;1481
1546;1481
1547;1482
1548;1482
1549;1483
1550;1483
1551;1484
1552;1483
1553;1484
1554;1484
1555;1485
1556;1485
1557;1485
1558;1485
1559;1485
1560;1486
1561;1485
1562;1485
1563;1485
1564;1485
1565;1485
1566;1485
1567;1484
1568;1484
1569;1483
1570;1483
1571;1483
1572;1483
1573;1482
1574;1482
1575;1481
1576;1481
1577;1481
1578;1481
1579;1480
1580;1480
1581;1480
1582;1479
1583;1478
1584;1479
1585;1478
1586;1478
1587;1478
1588;1478
1589;1478
1590;1479
1591;1479
1592;1479
1593;1479
1594;1479
1595;1479
1596;1480
1597;1480
1598;1480
1599;1481
1600;1481
1601;1481
1602;1482
1603;1482
1604;1482
1605;1483
1606;1483
1607;1483
1608;1483
1609;1483
1610;1484
1611;1484
1612;1484
1613;1483
1614;1483
1615;1483
1616;1483
1617;1482
1618;1482
1619;1482
1620;1481
1621;1481
1622;1480
1623;1479
1624;1480
1625;1479
1626;1479
1627;1478
1628;1478
1629;1478
1630;1477
1631;1477
1632;1476
1633;1476
1634;1476
1635;1476
1636;1476
1637;1475
1638;1476
1639;1475
1640;1475
1641;1476
1642;1476
1643;1476
1644;1476
1645;1477
1646;1477
1647;1477
1648;1478
1649;1478
1650;1478
1651;1478
1652;1479
1653;1479
1654;1480
1655;1480
1656;1480
1657;1480
1658;1481
1659;1480
1660;1481
1661;1481
1662;1481
1663;1481
1664;1480
1665;1480
1666;1480
1667;1479
1668;1479
1669;1479
1670;1478
1671;1478
1672;1478
1673;1477
1674;1477
1675;1476
1676;1476
1677;1475
1678;1475
1679;1475
1680;1474
1681;1474
1682;1474
1683;1473
1684;1473
1685;1473
1686;1472
1687;1472
1688;1472
1689;1473
1690;1472
1691;1473
1692;1473
1693;1473
1694;1473
1695;1474
1696;1474
1697;1474
1698;1475
1699;1475
1700;1475
1701;1476
1702;1476
1703;1476
1704;1476
1705;1477
1706;1477
1707;1477
1708;1477
1709;1478
1710;1477
1711;1478
1712;1478
1713;1477
1714;1477
1715;1477
1716;1477
1717;1476
1718;1476
1719;1475
1720;1475
1721;1474
1722;1474
1723;1474
1724;1473
1725;1473
1726;1473
1727;1472
1728;1471
1729;1471
1730;1470
1731;1470
1732;1469
1733;1470
1734;1469
1735;1469
1736;1468
1737;1468
1738;1468
1739;1468
1740;1468
1741;1468
1742;1469
1743;1469
1744;1469
1745;1469
1746;1469
1747;1470
1748;1470
1749;1470
1750;1470
1751;1470
1752;1471
1753;1471
1754;1472
1755;1472
1756;1472
1757;1472
1758;1472
1759;1472
1760;1472
1761;1472
1762;1472
1763;1472
1764;1472
1765;1472
1766;1471
1767;1471
1768;1470
1769;1470
1770;1470
1771;1469
1772;1469
1773;1468
1774;1467
1775;1467
1776;1467
1777;1466
1778;1466
1779;1465
1780;1465
1781;1465
1782;1464
1783;1464
1784;1463
1785;1463
1786;1463
1787;1463
1788;1462
1789;1463
1790;1463
1791;1463
1792;1463
1793;1463
1794;1463
1795;1463
1796;1464
1797;1464
1798;1464
1799;1465
1800;1465
1801;1465
1802;1465
1803;1466
1804;1466
1805;1466
1806;1467
1807;1467
1808;1467
1809;1467
1810;1467
1811;1467
1812;1467
1813;1467
1814;1467
1815;1467
1816;1467
1817;1467
1818;1466
1819;1465
1820;1465
1821;1465
1822;1464
1823;1464
1824;1463
1825;1463
1826;1462
1827;1462
1828;1461
1829;1461
1830;1461
1831;1460
1832;1460
1833;1459
1834;1459
1835;1459
1836;1458
1837;1458
1838;1458
1839;1458
1840;1458
1841;1458
1842;1458
1843;1459
1844;1459
1845;1459
1846;1459
1847;1459
1848;1460
1849;1460
1850;1460
1851;1461
1852;1461
1853;1462
1854;1461
1855;1462
1856;1463
1857;1462
1858;1463
1859;1463
1860;1463
1861;1464
1862;1463
1863;1464
1864;1463
1865;1463
1866;1463
1867;1463
1868;1463
1869;1462
1870;1462
1871;1461
1872;1461
1873;1461
1874;1460
1875;1460
1876;1459
1877;1459
1878;1458
1879;1458
1880;1458
1881;1457
1882;1457
1883;1457
1884;1457
1885;1456
1886;1456
1887;1455
1888;1456
1889;1456
1890;1456
1891;1456
1892;1457
1893;1457
1894;1457
1895;1457
1896;1457
1897;1458
1898;1458
1899;1458
1900;1459
1901;1460
1902;1460
1903;1460
1904;1461
1905;1461
1906;1461
1907;1461
1908;1463
1909;1463
1910;1463
1911;1463
1912;1463
1913;1463
1914;1463
1915;1463
1916;1463
1917;1463
1918;1462
1919;1463
1920;1462
1921;1462
1922;1461
1923;1461
1924;1461
1925;1460
1926;1460
1927;1460
1928;1459
1929;1460
1930;1459
1931;1459
1932;1458
1933;1458
1934;1458
1935;1458
1936;1457
1937;1457
1938;1457
1939;1457
1940;1458
1941;1458
1942;1458
1943;1458
1944;1459
1945;1459
1946;1459
1947;1460
1948;1460
1949;1461
1950;1461
1951;1462
1952;1462
1953;1462
1954;1463
1955;1464
1956;1464
1957;1465
1958;1465
1959;1465
1960;1466
1961;1466
1962;1466
1963;1467
1964;1467
1965;1467
1966;1467
1967;1467
1968;1466
1969;1466
1970;1466
1971;1466
1972;1466
1973;1465
1974;1465
1975;1465
1976;1464
1977;1464
1978;1464
1979;1464
1980;1464
1981;1464
1982;1463
1983;1463
1984;1463
1985;1463
1986;1462
1987;1462
1988;1463
1989;1462
1990;1463
1991;1463
1992;1463
1993;1464
1994;1464
1995;1464
1996;1465
1997;1465
1998;1466
1999;1466
2000;1467
2001;1467
2002;1468
2003;1469
2004;1469
2005;1470
2006;1470
2007;1470
2008;1470
2009;1471
2010;1472
2011;1472
2012;1472
2013;1473
2014;1473
2015;1473
2016;1473
2017;1473
2018;1473
2019;1473
2020;1472
2021;1472
2022;1472
2023;1472
2024;1471
2025;1472
2026;1471
2027;1471
2028;1471
2029;1471
2030;1470
2031;1470
2032;1470
2033;1470
2034;1470
2035;1469
2036;1469
2037;1469
2038;1469
2039;1469
2040;1469
2041;1470
2042;1470
2043;1470
2044;1471
2045;1471
2046;1472
2047;1472
2048;1472
2049;1473
2050;1474
2051;1474
2052;1475
2053;1475
2054;1476
2055;1477
2056;1477
2057;1477
2058;1478
2059;1478
2060;1479
2061;1479
2062;1479
2063;1480
2064;1480
2065;1480
2066;1480
2067;1481
2068;1481
2069;1480
2070;1480
2071;1480
2072;1480
2073;1480
2074;1480
2075;1480
2076;1480
2077;1479
2078;1479
2079;1479
2080;1478
2081;1478
2082;1478
2083;1478
2084;1477
2085;1478
2086;1477
2087;1477
2088;1477
2089;1477
2090;1477
2091;1477
2092;1478
2093;1478
2094;1478
2095;1479
2096;1479
2097;1479
2098;1480
2099;1481
2100;1481
2101;1482
2102;1482
2103;1483
2104;1483
2105;1484
2106;1484
2107;1484
2108;1485
2109;1485
2110;1486
2111;1487
2112;1487
2113;1487
2114;1488
2115;1487
2116;1488
2117;1488
2118;1488
2119;1488
2120;1488
2121;1487
2122;1488
2123;1487
2124;1487
2125;1487
2126;1486
2127;1486
2128;1486
2129;1486
2130;1486
2131;1486
2132;1485
2133;1485
2134;1485
2135;1485
2136;1485
2137;1484
2138;1484
2139;1484
2140;1485
2141;1485
2142;1485
2143;1485
2144;1486
2145;1486
2146;1486
2147;1487
2148;1488
2149;1488
2150;1488
2151;1489
2152;1489
2153;1490
2154;1491
2155;1491
2156;1491
2157;1492
2158;1493
2159;1493
2160;1494
2161;1494
2162;1494
2163;1495
2164;1495
2165;1495
2166;1496
2167;1495
2168;1496
2169;1496
2170;1495
2171;1495
2172;1495
2173;1495
2174;1494
2175;1494
2176;1494
2177;1494
2178;1493
2179;1493
2180;1493
2181;1492
2182;1493
2183;1492
2184;1492
2185;1492
2186;1492
2187;1492
2188;1491
2189;1491
2190;1492
2191;1491
2192;1491
2193;1492
2194;1492
2195;1492
2196;1493
2197;1493
2198;1494
2199;1494
2200;1495
2201;1495
2202;1495
2203;1496
2204;1496
2205;1497
2206;1497
2207;1498
2208;1498
2209;1498
2210;1499
2211;1499
2212;1499
2213;1500
2214;1500
2215;1501
2216;1500
2217;1500
2218;1500
2219;1500
2220;1500
2221;1500
2222;1499
2223;1499
2224;1499
2225;1499
2226;1499
2227;1498
2228;1498
2229;1498
2230;1497
2231;1497
2232;1497
2233;1497
2234;1496
2235;1496
2236;1496
2237;1496
2238;1495
2239;1495
2240;1495
2241;1495
2242;1495
2243;1495
2244;1495
2245;1496
2246;1496
2247;1496
2248;1496
2249;1497
2250;1497
2251;1498
2252;1498
2253;1499
2254;1499
2255;1499
2256;1500
2257;1500
2258;1500
2259;1501
2260;1501
2261;1502
2262;1502
2263;1502
2264;1502
2265;1502
2266;1502
2267;1502
2268;1502
2269;1501
2270;1501
2271;1501
2272;1501
2273;1501
2274;1500
2275;1499
2276;1500
2277;1499
2278;1499
2279;1498
2280;1498
2281;1497
2282;1497
2283;1497
2284;1496
2285;1496
2286;1495
2287;1495
2288;1495
2289;1494
2290;1494
2291;1494
2292;1494
2293;1494
2294;1494
2295;1495
2296;1494
2297;1495
2298;1495
2299;1495
2300;1496
2301;1496
2302;1496
2303;1497
2304;1497
2305;1498
2306;1498
2307;1498
2308;1499
2309;1499
2310;1499
2311;1499
2312;1500
2313;1500
2314;1500
2315;1500
2316;1500
2317;1500
2318;1500
2319;1500
2320;1500
2321;1500
2322;1499
2323;1499
2324;1499
2325;1498
2326;1498
2327;1498
2328;1497
2329;1497
2330;1496
2331;1496
2332;1496
2333;1496
2334;1495
2335;1495
2336;1495
2337;1494
2338;1494
2339;1493
2340;1493
2341;1493
2342;1493
2343;1493
2344;1493
2345;1494
2346;1494
2347;1494
2348;1494
2349;1494
2350;1495
2351;1495
2352;1496
2353;1496
2354;1496
2355;1497
2356;1497
2357;1498
2358;1498
2359;1498
2360;1498
2361;1499
2362;1499
2363;1499
2364;1500
2365;1500
2366;1500
2367;1500
2368;1500
2369;1500
2370;1500
2371;1500
2372;1500
2373;1499
2374;1499
2375;1499
2376;1499
2377;1498
2378;1498
2379;1498
2380;1497
2381;1497
2382;1496
2383;1496
2384;1496
2385;1496
2386;1495
2387;1495
2388;1495
2389;1495
2390;1495
2391;1495
2392;1495
2393;1495
2394;1495
2395;1495
2396;1495
2397;1496
2398;1496
2399;1496
2400;1497
2401;1497
2402;1497
2403;1498
2404;1499
2405;1499
2406;1499
2407;1500
2408;1500
2409;1500
2410;1501
2411;1501
2412;1501
2413;1502
2414;1502
2415;1503
2416;1503
2417;1503
2418;1504
2419;1503
2420;1503
2421;1503
2422;1503
2423;1503
2424;1503
2425;1502
2426;1502
2427;1502
2428;1501
2429;1501
2430;1501
2431;1501
2432;1500
2433;1500
2434;1500
2435;1499
2436;1499
2437;1499
2438;1499
2439;1498
2440;1498
2441;1498
2442;1498
2443;1498
2444;1498
2445;1498
2446;1499
2447;1499
2448;1499
2449;1500
2450;1500
2451;1500
2452;1500
2453;1501
2454;1501
2455;1501
2456;1502
2457;1502
2458;1502
2459;1503
2460;1503
2461;1504
2462;1504
2463;1504
2464;1504
2465;1505
2466;1505
2467;1505
2468;1505
2469;1505
2470;1505
2471;1505
2472;1504
2473;1504
2474;1504
2475;1504
2476;1503
2477;1503
2478;1502
2479;1502
2480;1502
2481;1502
2482;1501
2483;1501
2484;1500
2485;1500
2486;1499
2487;1500
2488;1499
2489;1499
2490;1499
2491;1498
2492;1498
2493;1498
2494;1498
2495;1498
2496;1498
2497;1499
2498;1499
2499;1499
2500;1499
2501;1500
2502;1500
2503;1501
2504;1501
2505;1501
2506;1502
2507;1502
2508;1503
2509;1503
2510;1503
2511;1503
2512;1504
2513;1504
2514;1504
2515;1505
2516;1505
2517;1505
2518;1505
2519;1505
2520;1505
2521;1505
2522;1504
2523;1504
2524;1504
2525;1503
2526;1503
2527;1503
2528;1502
2529;1502
2530;1502
2531;1501
2532;1501
2533;1500
2534;1500
2535;1500
2536;1500
2537;1500
2538;1499
2539;1499
2540;1499
2541;1499
2542;1499
2543;1498
2544;1499
2545;1499
2546;1499
2547;1499
2548;1500
2549;1500
2550;1500
2551;1501
2552;1501
2553;1501
2554;1502
2555;1503
2556;1503
2557;1503
2558;1504
2559;1504
2560;1505
2561;1505
2562;1505
2563;1505
2564;1506
2565;1506
2566;1506
2567;1506
2568;1506
2569;1506
2570;1506
2571;1506
2572;1506
2573;1505
2574;1505
2575;1505
2576;1504
2577;1504
2578;1503
2579;1504
2580;1503
2581;1503
2582;1502
2583;1502
2584;1502
2585;1501
2586;1501
2587;1501
2588;1500
2589;1500
2590;1500
2591;1499
2592;1500
2593;1499
2594;1499
2595;1499
2596;1499
2597;1500
2598;1500
2599;1500
2600;1501
2601;1501
2602;1501
2603;1502
2604;1502
2605;1502
2606;1503
2607;1503
2608;1504
2609;1503
2610;1504
2611;1504
2612;1505
2613;1505
2614;1505
2615;1506
2616;1506
2617;1505
2618;1506
2619;1506
2620;1506
2621;1506
2622;1505
2623;1505
2624;1504
2625;1504
2626;1504
2627;1504
2628;1503
2629;1502
2630;1502
2631;1502
2632;1502
2633;1501
2634;1501
2635;1500
2636;1500
2637;1499
2638;1499
2639;1499
2640;1498
2641;1499
2642;1498
2643;1498
2644;1498
2645;1498
2646;1499
2647;1499
2648;1499
2649;1499
2650;1499
2651;1500
2652;1500
2653;1500
2654;1500
2655;1501
2656;1501
2657;1501
2658;1502
2659;1502
2660;1503
2661;1503
2662;1503
2663;1503
2664;1504
2665;1504
2666;1504
2667;1504
2668;1504
2669;1504
2670;1504
2671;1504
2672;1503
2673;1503
2674;1503
2675;1502
2676;1502
2677;1502
2678;1501
2679;1501
2680;1500
2681;1500
2682;1500
2683;1499
2684;1499
2685;1498
2686;1498
2687;1497
2688;1497
2689;1497
2690;1496
2691;1496
2692;1496
2693;1495
2694;1495
2695;1495
2696;1495
2697;1495
2698;1495
2699;1495
2700;1495
2701;1496
2702;1495
2703;1496
2704;1496
2705;1496
2706;1497
2707;1496
2708;1497
2709;1497
2710;1497
2711;1498
2712;1498
2713;1498
2714;1498
2715;1498
2716;1498
2717;1498
2718;1498
2719;1498
2720;1499
2721;1498
2722;1497
2723;1497
2724;1497
2725;1496
2726;1496
2727;1496
2728;1495
2729;1494
2730;1494
2731;1493
2732;1492
2733;1492
2734;1491
2735;1491
2736;1491
2737;1490
2738;1489
2739;1489
2740;1489
2741;1488
2742;1487
2743;1487
2744;1487
2745;1487
2746;1486
2747;1487
2748;1487
2749;1487
2750;1487
2751;1487
2752;1487
2753;1487
2754;1488
2755;1487
2756;1488
2757;1488
2758;1488
2759;1488
2760;1488
2761;1489
2762;1489
2763;1489
2764;1489
2765;1489
2766;1489
2767;1489
2768;1489
2769;1489
2770;1489
2771;1489
2772;1489
2773;1489
2774;1488
2775;1488
2776;1487
2777;1487
2778;1486
2779;1486
2780;1485
2781;1484
2782;1484
2783;1484
2784;1483
2785;1483
2786;1482
2787;1482
2788;1481
2789;1481
2790;1480
2791;1480
2792;1480
2793;1480
2794;1479
2795;1479
2796;1479
2797;1479
2798;1479
2799;1479
2800;1479
2801;1480
2802;1480
2803;1480
2804;1481
2805;1481
2806;1481
2807;1482
2808;1482
2809;1482
2810;1483
2811;1483
2812;1483
2813;1484
2814;1484
2815;1484
2816;1484
2817;1485
2818;1485
2819;1485
2820;1485
2821;1485
2822;1485
2823;1485
2824;1485
2825;1485
2826;1484
2827;1484
2828;1484
2829;1483
2830;1483
2831;1483
2832;1483
2833;1482
2834;1481
2835;1482
2836;1481
2837;1481
2838;1481
2839;1481
2840;1480
2841;1480
2842;1480
2843;1479
2844;1479
2845;1479
2846;1480
2847;1480
2848;1480
2849;1480
2850;1481
2851;1481
2852;1481
2853;1482
2854;1482
2855;1482
2856;1483
2857;1484
2858;1484
2859;1485
2860;1485
2861;1486
2862;1486
2863;1486
2864;1487
2865;1487
2866;1488
2867;1488
2868;1488
2869;1488
2870;1488
2871;1488
2872;1489
2873;1488
2874;1488
2875;1488
2876;1488
2877;1488
2878;1487
2879;1487
2880;1486
2881;1486
2882;1486
2883;1485
2884;1486
2885;1485
2886;1485
2887;1485
2888;1484
2889;1484
2890;1484
2891;1483
2892;1483
2893;1483
2894;1483
2895;1483
2896;1482
2897;1482
2898;1482
2899;1483
2900;1483
2901;1483
2902;1484
2903;1484
2904;1484
2905;1485
2906;1485
2907;1485
2908;1486
2909;1486
2910;1487
2911;1487
2912;1488
2913;1488
2914;1488
2915;1489
2916;1489
2917;1489
2918;1489
2919;1489
2920;1489
2921;1490
2922;1489
2923;1489
2924;1489
2925;1489
2926;1489
2927;1489
2928;1488
2929;1488
2930;1488
2931;1487
2932;1487
2933;1486
2934;1486
2935;1486
2936;1486
2937;1485
2938;1485
2939;1484
2940;1484
2941;1484
2942;1483
2943;1483
2944;1483
2945;1483
2946;1483
2947;1483
2948;1483
2949;1483
2950;1483
2951;1484
2952;1484
2953;1484
2954;1485
2955;1485
2956;1485
2957;1486
2958;1486
2959;1487
2960;1486
2961;1487
2962;1488
2963;1488
2964;1488
2965;1488
2966;1489
2967;1489
2968;1489
2969;1490
2970;1489
2971;1490
2972;1490
2973;1490
2974;1489
2975;1489
2976;1489
2977;1489
2978;1488
2979;1489
2980;1488
2981;1488
2982;1487
2983;1487
2984;1487
2985;1486
2986;1486
2987;1486
2988;1485
2989;1485
2990;1485
2991;1485
2992;1485
2993;1484
2994;1484
2995;1484
2996;1484
2997;1484
2998;1484
2999;1484
3000;1485
3001;1485
3002;1485
3003;1485
3004;1486
3005;1486
3006;1487
3007;1487
3008;1488
3009;1488
3010;1489
3011;1489
3012;1490
3013;1490
3014;1491
3015;1491
3016;1491
3017;1492
3018;1492
3019;1492
3020;1493
3021;1493
3022;1493
3023;1493
3024;1493
3025;1494
3026;1493
3027;1493
3028;1493
3029;1493
3030;1492
3031;1493
3032;1492
3033;1492
3034;1492
3035;1492
3036;1492
3037;1491
3038;1491
3039;1491
3040;1491
3041;1491
3042;1491
3043;1491
3044;1491
3045;1491
3046;1491
3047;1491
3048;1491
3049;1491
3050;1492
3051;1492
3052;1492
3053;1493
3054;1494
3055;1494
3056;1495
3057;1495
3058;1496
3059;1496
3060;1497
3061;1498
3062;1498
3063;1499
3064;1499
3065;1500
3066;1500
3067;1501
3068;1501
3069;1502
3070;1502
3071;1503
3072;1503
3073;1503
3074;1503
3075;1503
3076;1503
3077;1503
3078;1503
3079;1503
3080;1503
3081;1503
3082;1503
3083;1503
3084;1503
3085;1503
3086;1503
3087;1503
3088;1503
3089;1503
3090;1503
3091;1503
3092;1503
3093;1502
3094;1503
3095;1503
3096;1503
3097;1503
3098;1503
3099;1504
3100;1504
3101;1504
3102;1505
3103;1506
3104;1506
3105;1507
3106;1507
3107;1508
3108;1508
3109;1509
3110;1510
3111;1510
3112;1511
3113;1512
3114;1512
3115;1513
3116;1513
3117;1514
3118;1514
3119;1515
3120;1515
3121;1516
3122;1516
3123;1516
3124;1516
3125;1516
3126;1516
3127;1516
3128;1516
3129;1516
3130;1516
3131;1516
3132;1516
3133;1516
3134;1516
3135;1515
3136;1515
3137;1515
3138;1515
3139;1515
3140;1514
3141;1514
3142;1514
3143;1514
3144;1514
3145;1514
3146;1514
3147;1514
3148;1514
3149;1514
3150;1515
3151;1515
3152;1515
3153;1516
3154;1517
3155;1517
3156;1517
3157;1517
3158;1518
3159;1519
3160;1519
3161;1520
3162;1520
3163;1521
3164;1521
3165;1522
3166;1522
3167;1523
3168;1523
3169;1524
3170;1524
3171;1525
3172;1525
3173;1525
3174;1524
3175;1525
3176;1525
3177;1525
3178;1524
3179;1525
3180;1524
3181;1524
3182;1524
3183;1523
3184;1523
3185;1523
3186;1523
3187;1522
3188;1522
3189;1522
3190;1522
3191;1522
3192;1521
3193;1521
3194;1521
3195;1521
3196;1521
3197;1520
3198;1520
3199;1520
3200;1521
3201;1521
3202;1521
3203;1521
3204;1522
3205;1522
3206;1522
3207;1523
3208;1523
3209;1523
3210;1524
3211;1524
3212;1525
3213;1525
3214;1526
3215;1526
3216;1526
3217;1527
3218;1527
3219;1527
3220;1527
3221;1527
3222;1528
3223;1528
3224;1528
3225;1528
3226;1527
3227;1527
3228;1527
3229;1527
3230;1526
3231;1526
3232;1526
3233;1525
3234;1524
3235;1525
3236;1524
3237;1524
3238;1523
3239;1523
3240;1523
3241;1523
3242;1522
3243;1521
3244;1521
3245;1521
3246;1521
3247;1521
3248;1520
3249;1520
3250;1521
3251;1520
3252;1521
3253;1521
3254;1521
3255;1521
3256;1522
3257;1522
3258;1522
3259;1522
3260;1523
3261;1523
3262;1524
3263;1524
3264;1524
3265;1525
3266;1525
3267;1525
3268;1525
3269;1526
3270;1526
3271;1526
3272;1526
3273;1526
3274;1526
3275;1526
3276;1526
3277;1525
3278;1525
3279;1525
3280;1525
3281;1524
3282;1524
3283;1523
3284;1523
3285;1522
3286;1521
3287;1521
3288;1521
3289;1521
3290;1520
3291;1520
3292;1519
3293;1519
3294;1519
3295;1519
3296;1518
3297;1518
3298;1518
3299;1517
3300;1517
3301;1517
3302;1517
3303;1517
3304;1518
3305;1518
3306;1518
3307;1518
3308;1519
3309;1519
3310;1519
3311;1519
3312;1520
3313;1520
3314;1520
3315;1520
3316;1521
3317;1521
3318;1521
3319;1521
3320;1521
3321;1521
3322;1521
3323;1521
3324;1521
3325;1521
3326;1521
3327;1521
3328;1521
3329;1520
3330;1520
3331;1519
3332;1518
3333;1518
3334;1518
3335;1517
3336;1516
3337;1516
3338;1516
3339;1515
3340;1515
3341;1514
3342;1514
3343;1514
3344;1513
3345;1512
3346;1512
3347;1512
3348;1511
3349;1511
3350;1511
3351;1511
3352;1511
3353;1511
3354;1511
3355;1512
3356;1512
3357;1511
3358;1512
3359;1513
3360;1513
3361;1513
3362;1513
3363;1513
3364;1514
3365;1514
3366;1514
3367;1514
3368;1514
3369;1514
3370;1515
3371;1515
3372;1515
3373;1515
3374;1515
3375;1515
3376;1515
3377;1515
3378;1514
3379;1514
3380;1513
3381;1513
3382;1512
3383;1512
3384;1512
3385;1511
3386;1511
3387;1510
3388;1509
3389;1510
3390;1509
3391;1508
3392;1508
3393;1507
3394;1507
3395;1506
3396;1506
3397;1505
3398;1505
3399;1505
3400;1505
3401;1504
3402;1505
3403;1505
3404;1505
3405;1505
3406;1505
3407;1505
3408;1505
3409;1506
3410;1506
3411;1506
3412;1507
3413;1507
3414;1507
3415;1507
3416;1507
3417;1508
3418;1508
3419;1508
3420;1508
3421;1508
3422;1508
3423;1508
3424;1508
3425;1508
3426;1508
3427;1507
3428;1507
3429;1507
3430;1506
3431;1505
3432;1506
3433;1505
3434;1504
3435;1504
3436;1504
3437;1503
3438;1502
3439;1502
3440;1501
3441;1501
3442;1501
3443;1500
3444;1499
3445;1499
3446;1499
3447;1498
3448;1498
3449;1498
3450;1498
3451;1498
3452;1497
3453;1497
3454;1497
3455;1497
3456;1498
3457;1498
3458;1498
3459;1499
3460;1498
3461;1499
3462;1499
3463;1499
3464;1499
3465;1500
3466;1500
3467;1500
3468;1500
3469;1501
3470;1501
3471;1501
3472;1501
3473;1502
3474;1502
3475;1501
3476;1501
3477;1501
3478;1501
3479;1501
3480;1500
3481;1500
3482;1499
3483;1499
3484;1499
3485;1498
3486;1498
3487;1497
3488;1497
3489;1497
3490;1496
3491;1496
3492;1495
3493;1495
3494;1495
3495;1494
3496;1494
3497;1494
3498;1494
3499;1493
3500;1493
3501;1493
3502;1493
3503;1493
3504;1493
3505;1493
3506;1494
3507;1494
3508;1494
3509;1494
3510;1495
3511;1495
3512;1495
3513;1495
3514;1496
3515;1496
3516;1496
3517;1496
3518;1497
3519;1497
3520;1497
3521;1497
3522;1498
3523;1497
3524;1498
3525;1497
3526;1498
3527;1497
3528;1497
3529;1497
3530;1497
3531;1497
3532;1496
3533;1495
3534;1495
3535;1495
3536;1494
3537;1494
3538;1493
3539;1493
3540;1492
3541;1492
3542;1492
3543;1491
3544;1491
3545;1490
3546;1490
3547;1489
3548;1489
3549;1489
3550;1488
3551;1488
3552;1489
3553;1489
3554;1489
3555;1489
3556;1489
3557;1489
3558;1489
3559;1489
3560;1490
3561;1490
3562;1490
3563;1490
3564;1491
3565;1491
3566;1491
3567;1491
3568;1492
3569;1492
3570;1492
3571;1493
3572;1493
3573;1493
3574;1493
3575;1493
3576;1493
3577;1493
3578;1492
3579;1492
3580;1492
3581;1491
3582;1491
3583;1490
3584;1490
3585;1490
3586;1490
3587;1489
3588;1488
3589;1488
3590;1488
3591;1487
3592;1487
3593;1486
3594;1486
3595;1485
3596;1485
3597;1485
3598;1484
3599;1484
3600;1484
3601;1484
3602;1484
3603;1483
3604;1484
3605;1484
3606;1484
3607;1484
3608;1484
3609;1484
3610;1485
3611;1485
3612;1485
3613;1485
3614;1486
3615;1486
3616;1486
3617;1486
3618;1486
3619;1487
3620;1487
3621;1487
3622;1488
3623;1488
3624;1488
3625;1488
3626;1488
3627;1488
3628;1488
3629;1488
3630;1487
3631;1487
3632;1487
3633;1486
3634;1486
3635;1486
3636;1485
3637;1484
3638;1484
3639;1484
3640;1483
3641;1483
3642;1483
3643;1482
3644;1482
3645;1482
3646;1481
3647;1481
3648;1481
3649;1480
3650;1480
3651;1480
3652;1480
3653;1480
3654;1480
3655;1480
3656;1481
3657;1481
3658;1481
3659;1481
3660;1482
3661;1482
3662;1483
3663;1483
3664;1483
3665;1483
3666;1484
3667;1485
3668;1485
3669;1485
3670;1485
3671;1485
3672;1486
3673;1486
3674;1486
3675;1486
3676;1487
3677;1487
3678;1487
3679;1486
3680;1486
3681;1486
3682;1485
3683;1486
3684;1486
3685;1486
3686;1485
3687;1485
3688;1484
3689;1484
3690;1484
3691;1483
3692;1483
3693;1483
3694;1483
3695;1482
3696;1482
3697;1481
3698;1481
3699;1481
3700;1481
3701;1481
3702;1481
3703;1481
3704;1481
3705;1481
3706;1481
3707;1481
3708;1482
3709;1482
3710;1482
3711;1483
3712;1483
3713;1484
3714;1484
3715;1484
3716;1485
3717;1485
3718;1485
3719;1486
3720;1486
3721;1486
3722;1487
3723;1487
3724;1487
3725;1488
3726;1488
3727;1488
3728;1488
3729;1488
3730;1488
3731;1488
3732;1488
3733;1487
3734;1487
3735;1487
3736;1486
3737;1486
3738;1486
3739;1486
3740;1485
3741;1485
3742;1485
3743;1484
3744;1484
3745;1484
3746;1484
3747;1484
3748;1483
3749;1483
3750;1483
3751;1483
3752;1483
3753;1484
3754;1483
3755;1483
3756;1483
3757;1484
3758;1485
3759;1484
3760;1485
3761;1485
3762;1486
3763;1486
3764;1486
3765;1487
3766;1487
3767;1488
3768;1488
3769;1488
3770;1488
3771;1489
3772;1489
3773;1490
3774;1490
3775;1491
3776;1491
3777;1491
3778;1491
3779;1491
3780;1491
3781;1491
3782;1491
3783;1491
3784;1490
3785;1490
3786;1490
3787;1490
3788;1489
3789;1489
3790;1489
3791;1489
3792;1489
3793;1488
3794;1488
3795;1488
3796;1488
3797;1488
3798;1487
3799;1487
3800;1487
3801;1487
3802;1487
3803;1487
3804;1487
3805;1487
3806;1488
3807;1488
3808;1488
3809;1489
3810;1488
3811;1490
3812;1489
3813;1490
3814;1491
3815;1491
3816;1492
3817;1492
3818;1493
3819;1493
3820;1493
3821;1494
3822;1495
3823;1495
3824;1496
3825;1496
3826;1496
3827;1497
3828;1497
3829;1497
3830;1497
3831;1497
3832;1497
3833;1497
3834;1497
3835;1496
3836;1496
3837;1496
3838;1496
3839;1496
3840;1496
3841;1495
3842;1495
3843;1495
3844;1495
3845;1494
3846;1494
3847;1494
3848;1494
3849;1494
3850;1494
3851;1494
3852;1494
3853;1494
3854;1494
3855;1494
3856;1494
3857;1495
3858;1495
3859;1495
3860;1496
3861;1496
3862;1497
3863;1497
3864;1498
3865;1498
3866;1498
3867;1500
3868;1500
3869;1500
3870;1501
3871;1501
3872;1502
3873;1502
3874;1503
3875;1503
3876;1503
3877;1504
3878;1504
3879;1504
3880;1504
3881;1504
3882;1504
3883;1504
3884;1503
3885;1504
3886;1504
3887;1503
3888;1503
3889;1503
3890;1503
3891;1502
3892;1502
3893;1502
3894;1502
3895;1502
3896;1501
3897;1501
3898;1501
3899;1501
3900;1501
3901;1500
3902;1501
3903;1500
3904;1500
3905;1501
3906;1501
3907;1501
3908;1501
3909;1502
3910;1502
3911;1503
3912;1503
3913;1504
3914;1504
3915;1504
3916;1505
3917;1506
3918;1506
3919;1507
3920;1507
3921;1508
3922;1508
3923;1509
3924;1509
3925;1509
3926;1510
3927;1510
3928;1510
3929;1510
3930;1510
3931;1510
3932;1510
3933;1510
3934;1510
3935;1510
3936;1510
3937;1509
3938;1509
3939;1509
3940;1508
3941;1508
3942;1508
3943;1508
3944;1508
3945;1507
3946;1507
3947;1507
3948;1507
3949;1506
3950;1506
3951;1506
3952;1506
3953;1506
3954;1506
3955;1506
3956;1506
3957;1507
3958;1507
3959;1508
3960;1507
3961;1508
3962;1509
3963;1509
3964;1510
3965;1510
3966;1510
3967;1510
3968;1511
3969;1512
3970;1512
3971;1512
3972;1513
3973;1513
3974;1513
3975;1514
3976;1514
3977;1514
3978;1514
3979;1515
3980;1515
3981;1515
3982;1515
3983;1514
3984;1514
3985;1514
3986;1514
3987;1514
3988;1513
3989;1513
3990;1513
3991;1512
3992;1512
3993;1512
3994;1512
3995;1511
3996;1511
3997;1511
3998;1511
3999;1511
4000;1510
4001;1510
4002;1510
4003;1510
4004;1510
4005;1510
4006;1510
4007;1511
4008;1511
4009;1511
4010;1511
4011;1512
4012;1513
4013;1513
4014;1513
4015;1513
4016;1514
4017;1515
4018;1515
4019;1515
4020;1516
4021;1516
4022;1517
4023;1517
4024;1517
4025;1517
4026;1518
4027;1518
4028;1518
4029;1518
4030;1518
4031;1518
4032;1519
4033;1518
4034;1518
4035;1518
4036;1518
4037;1517
4038;1517
4039;1517
4040;1517
4041;1516
4042;1516
4043;1516
4044;1516
4045;1515
4046;1515
4047;1515
4048;1514
4049;1514
4050;1514
4051;1514
4052;1513
4053;1514
4054;1513
4055;1514
4056;1513
4057;1514
4058;1514
4059;1514
4060;1514
4061;1515
4062;1515
4063;1516
4064;1515
4065;1516
4066;1517
4067;1517
4068;1517
4069;1517
4070;1518
4071;1518
4072;1519
4073;1519
4074;1520
4075;1520
4076;1520
4077;1520
4078;1520
4079;1520
4080;1520
4081;1521
4082;1520
4083;1520
4084;1520
4085;1520
4086;1519
4087;1519
4088;1519
4089;1518
4090;1517
4091;1518
4092;1517
4093;1517
4094;1516
4095;1516
4096;1516
4097;1515
4098;1515
4099;1514
4100;1514
4101;1514
4102;1514
4103;1513
4104;1513
4105;1513
4106;1513
4107;1513
4108;1513
4109;1514
4110;1514
4111;1514
4112;1514
4113;1514
4114;1515
4115;1515
4116;1516
4117;1516
4118;1516
4119;1517
4120;1517
4121;1517
4122;1518
4123;1518
4124;1518
4125;1519
4126;1519
4127;1519
4128;1519
4129;1519
4130;1519
4131;1519
4132;1519
4133;1519
4134;1518
4135;1518
4136;1517
4137;1517
4138;1517
4139;1516
4140;1516
4141;1515
4142;1514
4143;1514
4144;1514
4145;1513
4146;1513
4147;1512
4148;1512
4149;1511
4150;1512
4151;1511
4152;1510
4153;1510
4154;1510
4155;1510
4156;1510
4157;1510
4158;1510
4159;1510
4160;1510
4161;1511
4162;1511
4163;1511
4164;1511
4165;1511
4166;1512
4167;1512
4168;1512
4169;1513
4170;1513
4171;1513
4172;1514
4173;1514
4174;1514
4175;1514
4176;1514
4177;1514
4178;1514
4179;1515
4180;1515
4181;1515
4182;1514
4183;1514
4184;1513
4185;1513
4186;1513
4187;1513
4188;1512
4189;1511
4190;1511
4191;1511
4192;1510
4193;1510
4194;1509
4195;1509
4196;1509
4197;1508
4198;1508
4199;1507
4200;1507
4201;1506
4202;1506
4203;1505
4204;1505
4205;1505
4206;1505
4207;1505
4208;1505
4209;1505
4210;1505
4211;1505
4212;1505
4213;1505
4214;1506
4215;1507
4216;1506
4217;1507
4218;1507
4219;1507
4220;1508
4221;1508
4222;1508
4223;1508
4224;1509
4225;1509
4226;1509
4227;1509
4228;1509
4229;1509
4230;1509
4231;1509
4232;1509
4233;1508
4234;1508
4235;1508
4236;1508
4237;1507
4238;1507
4239;1506
4240;1505
4241;1505
4242;1505
4243;1504
4244;1504
4245;1503
4246;1502
4247;1502
4248;1502
4249;1501
4250;1501
4251;1500
4252;1500
4253;1500
4254;1499
4255;1499
4256;1499
4257;1499
4258;1499
4259;1499
4260;1499
4261;1499
4262;1499
4263;1499
4264;1500
4265;1500
4266;1500
4267;1500
4268;1500
4269;1501
4270;1501
4271;1501
4272;1501
4273;1501
4274;1502
4275;1502
4276;1502
4277;1502
4278;1502
4279;1502
4280;1502
4281;1502
4282;1502
4283;1502
4284;1502
4285;1502
4286;1501
4287;1500
4288;1500
4289;1499
4290;1499
4291;1498
4292;1498
4293;1497
4294;1497
4295;1496
4296;1496
4297;1496
4298;1495
4299;1494
4300;1494
4301;1493
4302;1493
4303;1493
4304;1493
4305;1492
4306;1492
4307;1492
4308;1492
4309;1492
4310;1492
4311;1492
4312;1492
4313;1492
4314;1492
4315;1493
4316;1493
4317;1493
4318;1494
4319;1494
4320;1494
4321;1494
4322;1495
4323;1495
4324;1495
4325;1495
4326;1495
4327;1496
4328;1496
4329;1496
4330;1496
4331;1496
4332;1496
4333;1496
4334;1496
4335;1495
4336;1495
4337;1495
4338;1494
4339;1494
4340;1494
4341;1493
4342;1493
4343;1492
4344;1492
4345;1491
4346;1491
4347;1491
4348;1490
4349;1490
4350;1490
4351;1489
4352;1489
4353;1489
4354;1488
4355;1488
4356;1488
4357;1488
4358;1488
4359;1488
4360;1488
4361;1489
4362;1488
4363;1489
4364;1489
4365;1489
4366;1489
4367;1490
4368;1490
4369;1491
4370;1491
4371;1491
4372;1492
4373;1492
4374;1492
4375;1493
4376;1493
4377;1493
4378;1494
4379;1494
4380;1494
4381;1494
4382;1494
4383;1494
4384;1494
4385;1493
4386;1493
4387;1493
4388;1493
4389;1492
4390;1492
4391;1492
4392;1491
4393;1491
4394;1490
4395;1490
4396;1490
4397;1489
4398;1489
4399;1489
4400;1489
4401;1488
4402;1488
4403;1487
4404;1487
4405;1487
4406;1487
4407;1487
4408;1487
4409;1487
4410;1487
4411;1487
4412;1487
4413;1488
4414;1488
4415;1488
4416;1488
4417;1489
4418;1490
4419;1490
4420;1491
4421;1491
4422;1491
4423;1491
4424;1492
4425;1492
4426;1492
4427;1493
4428;1493
4429;1493
4430;1494
4431;1494
4432;1494
4433;1494
4434;1494
4435;1494
4436;1494
4437;1494
4438;1493
4439;1493
4440;1493
4441;1493
4442;1492
4443;1492
4444;1491
4445;1491
4446;1491
4447;1491
4448;1491
4449;1490
4450;1490
4451;1489
4452;1489
4453;1489
4454;1489
4455;1489
4456;1489
4457;1489
4458;1488
4459;1488
4460;1489
4461;1489
4462;1489
4463;1490
4464;1490
4465;1490
4466;1491
4467;1491
4468;1492
4469;1492
4470;1493
4471;1493
4472;1493
4473;1494
4474;1494
4475;1494
4476;1495
4477;1495
4478;1496
4479;1496
4480;1496
4481;1496
4482;1497
4483;1497
4484;1497
4485;1497
4486;1497
4487;1497
4488;1496
4489;1496
4490;1496
4491;1495
4492;1495
4493;1495
4494;1495
4495;1494
4496;1494
4497;1494
4498;1494
4499;1493
4500;1493
4501;1493
4502;1492
4503;1492
4504;1492
4505;1492
4506;1492
4507;1491
4508;1492
4509;1492
4510;1492
4511;1492
4512;1492
4513;1493
4514;1493
4515;1493
4516;1494
4517;1494
4518;1494
4519;1495
4520;1495
4521;1496
4522;1497
4523;1497
4524;1497
4525;1498
4526;1498
4527;1498
4528;1498
4529;1499
4530;1499
4531;1500
4532;1500
4533;1500
4534;1500
4535;1500
4536;1500
4537;1499
4538;1499
4539;1499
4540;1499
4541;1498
4542;1498
4543;1498
4544;1498
4545;1497
4546;1497
4547;1496
4548;1496
4549;1496
4550;1496
4551;1495
4552;1495
4553;1494
4554;1494
4555;1494
4556;1494
4557;1494
4558;1493
4559;1494
4560;1494
4561;1494
4562;1494
4563;1494
4564;1494
4565;1495
4566;1495
4567;1495
4568;1496
4569;1497
4570;1497
4571;1498
4572;1498
4573;1498
4574;1499
4575;1499
4576;1499
4577;1500
4578;1501
4579;1501
4580;1501
4581;1501
4582;1501
4583;1502
4584;1501
4585;1501
4586;1502
4587;1501
4588;1501
4589;1501
4590;1501
4591;1500
4592;1501
4593;1500
4594;1499
4595;1499
4596;1499
4597;1499
4598;1498
4599;1498
4600;1498
4601;1498
4602;1497
4603;1497
4604;1497
4605;1497
4606;1497
4607;1496
4608;1496
4609;1496
4610;1496
4611;1497
4612;1496
4613;1497
4614;1497
4615;1497
4616;1498
4617;1498
4618;1498
4619;1499
4620;1499
4621;1500
4622;1500
4623;1501
4624;1502
4625;1501
4626;1502
4627;1502
4628;1502
4629;1503
4630;1503
4631;1503
4632;1504
4633;1504
4634;1504
4635;1504
4636;1504
4637;1504
4638;1504
4639;1504
4640;1503
4641;1503
4642;1503
4643;1503
4644;1502
4645;1502
4646;1501
4647;1501
4648;1501
4649;1500
4650;1500
4651;1500
4652;1500
4653;1500
4654;1499
4655;1499
4656;1499
4657;1498
4658;1499
4659;1498
4660;1498
4661;1499
4662;1499
4663;1499
4664;1499
4665;1500
4666;1500
4667;1500
4668;1501
4669;1501
4670;1502
4671;1502
4672;1502
4673;1503
4674;1503
4675;1504
4676;1504
4677;1505
4678;1505
4679;1505
4680;1506
4681;1506
4682;1506
4683;1507
4684;1506
4685;1507
4686;1507
4687;1506
4688;1506
4689;1506
4690;1506
4691;1505
4692;1505
4693;1505
4694;1504
4695;1504
4696;1504
4697;1503
4698;1503
4699;1503
4700;1502
4701;1502
4702;1502
4703;1502
4704;1501
4705;1501
4706;1500
4707;1500
4708;1500
4709;1500
4710;1500
4711;1500
4712;1500
4713;1501
4714;1501
4715;1501
4716;1501
4717;1502
4718;1502
4719;1503
4720;1503
4721;1503
4722;1504
4723;1504
4724;1504
4725;1505
4726;1505
4727;1505
4728;1506
4729;1506
4730;1506
4731;1507
4732;1507
4733;1507
4734;1507
4735;1507
4736;1507
4737;1507
4738;1507
4739;1507
4740;1507
4741;1506
4742;1506
4743;1506
4744;1505
4745;1505
4746;1504
4747;1504
4748;1504
4749;1503
4750;1503
4751;1503
4752;1502
4753;1502
4754;1502
4755;1502
4756;1501
4757;1501
4758;1501
4759;1501
4760;1501
4761;1501
4762;1501
4763;1501
4764;1500
4765;1502
4766;1502
4767;1502
4768;1503
4769;1503
4770;1503
4771;1503
4772;1504
4773;1504
4774;1504
4775;1505
4776;1505
4777;1505
4778;1506
4779;1507
4780;1507
4781;1507
4782;1507
4783;1508
4784;1508
4785;1508
4786;1508
4787;1508
4788;1508
4789;1507
4790;1507
4791;1507
4792;1506
4793;1506
4794;1506
4795;1505
4796;1505
4797;1505
4798;1504
4799;1504
4800;1504
4801;1503
4802;1503
4803;1502
4804;1502
4805;1502
4806;1501
4807;1501
4808;1501
4809;1500
4810;1500
4811;1500
4812;1500
4813;1500
4814;1501
4815;1501
4816;1501
4817;1501
4818;1501
4819;1501
4820;1502
4821;1502
4822;1502
4823;1503
4824;1503
4825;1503
4826;1503
4827;1504
4828;1504
4829;1504
4830;1504
4831;1505
4832;1504
4833;1505
4834;1505
4835;1505
4836;1505
4837;1504
4838;1504
4839;1504
4840;1504
4841;1503
4842;1503
4843;1502
4844;1502
4845;1501
4846;1501
4847;1500
4848;1500
4849;1500
4850;1499
4851;1498
4852;1498
4853;1498
4854;1497
4855;1497
4856;1496
4857;1496
4858;1495
4859;1496
4860;1495
4861;1495
4862;1495
4863;1495
4864;1494
4865;1495
4866;1495
4867;1495
4868;1495
4869;1495
4870;1496
4871;1496
4872;1496
4873;1496
4874;1497
4875;1497
4876;1497
4877;1497
4878;1497
4879;1497
4880;1498
4881;1498
4882;1498
4883;1498
4884;1498
4885;1498
4886;1498
4887;1498
4888;1498
4889;1497
4890;1497
4891;1496
4892;1496
4893;1495
4894;1495
4895;1494
4896;1493
4897;1493
4898;1493
4899;1492
4900;1491
4901;1491
4902;1490
4903;1490
4904;1490
4905;1489
4906;1489
4907;1488
4908;1488
4909;1487
4910;1487
4911;1487
4912;1487
4913;1487
4914;1487
4915;1486
4916;1487
4917;1487
4918;1487
4919;1488
4920;1488
4921;1488
4922;1489
4923;1488
4924;1489
4925;1489
4926;1489
4927;1489
4928;1490
4929;1490
4930;1490
4931;1490
4932;1491
4933;1491
4934;1491
4935;1491
4936;1491
4937;1491
4938;1491
4939;1491
4940;1490
4941;1490
4942;1489
4943;1489
4944;1489
4945;1488
4946;1488
4947;1487
4948;1487
4949;1486
4950;1486
4951;1485
4952;1485
4953;1485
4954;1484
4955;1483
4956;1483
4957;1483
4958;1482
4959;1482
4960;1481
4961;1481
4962;1480
4963;1480
4964;1480
4965;1480
4966;1480
4967;1480
4968;1480
4969;1480
4970;1481
4971;1481
4972;1481
4973;1481
4974;1482
4975;1482
4976;1482
4977;1483
4978;1483
4979;1484
4980;1484
4981;1485
4982;1485
4983;1486
4984;1486
4985;1486
4986;1486
4987;1486
4988;1486
4989;1486
4990;1487
4991;1486
4992;1486
4993;1486
4994;1485
4995;1485
4996;1485
4997;1484
4998;1483
4999;1483
5000;1483
5001;1482
5002;1482
5003;1482
5004;1481
5005;1481
5006;1480
5007;1480
5008;1479
5009;1479
5010;1479
5011;1479
5012;1478
5013;1478
5014;1478
5015;1478
5016;1478
5017;1478
5018;1478
5019;1478
5020;1478
5021;1479
5022;1479
5023;1479
5024;1479
5025;1479
5026;1480
5027;1480
5028;1480
5029;1481
5030;1481
5031;1481
5032;1482
5033;1482
5034;1483
5035;1483
5036;1483
5037;1484
5038;1484
5039;1485
5040;1485
5041;1485
5042;1485
5043;1485
5044;1485
5045;1485
5046;1485
5047;1485
5048;1485
5049;1485
5050;1484
5051;1484
5052;1484
5053;1483
5054;1483
5055;1482
5056;1482
5057;1482
5058;1482
5059;1482
5060;1482
5061;1482
5062;1482
5063;1483
5064;1482
5065;1483
5066;1483
5067;1484
5068;1484
5069;1484
5070;1485
5071;1486
5072;1486
5073;1487
5074;1486
5075;1487
5076;1487
5077;1488
5078;1488
5079;1488
5080;1489
5081;1490
5082;1489
5083;1490
5084;1490
5085;1490
5086;1491
5087;1491
5088;1491
5089;1491
5090;1491
5091;1491
5092;1491
5093;1491
5094;1491
5095;1491
5096;1491
5097;1491
5098;1491
5099;1490
5100;1490
5101;1490
5102;1489
5103;1489
5104;1489
5105;1489
5106;1488
5107;1488
5108;1488
5109;1488
5110;1488
5111;1488
5112;1489
5113;1488
5114;1489
5115;1489
5116;1490
5117;1491
5118;1491
5119;1492
5120;1492
5121;1493
5122;1493
5123;1494
5124;1494
5125;1495
5126;1495
5127;1496
5128;1496
5129;1497
5130;1497
5131;1498
5132;1498
5133;1499
5134;1499
5135;1500
5136;1501
5137;1501
5138;1501
5139;1502
5140;1502
5141;1502
5142;1501
5143;1502
5144;1502
5145;1501
5146;1502
5147;1501
5148;1501
5149;1501
5150;1501
5151;1500
5152;1500
5153;1499
5154;1499
5155;1499
5156;1499
5157;1499
5158;1499
5159;1499
5160;1499
5161;1499
5162;1499
5163;1499
5164;1498
5165;1499
5166;1499
5167;1499
5168;1500
5169;1500
5170;1500
5171;1501
5172;1501
5173;1502
5174;1503
5175;1504
5176;1504
5177;1505
5178;1506
5179;1506
5180;1507
5181;1507
5182;1508
5183;1508
5184;1509
5185;1510
5186;1510
5187;1510
5188;1511
5189;1511
5190;1512
5191;1512
5192;1512
5193;1512
5194;1513
5195;1513
5196;1512
5197;1513
5198;1513
5199;1513
5200;1513
5201;1513
5202;1513
5203;1513
5204;1514
5205;1514
5206;1514
5207;1513
5208;1514
5209;1513
5210;1514
5211;1514
5212;1513
5213;1513
5214;1513
5215;1514
5216;1514
5217;1514
5218;1514
5219;1515
5220;1515
5221;1516
5222;1516
5223;1516
5224;1517
5225;1517
5226;1518
5227;1519
5228;1519
5229;1520
5230;1520
5231;1521
5232;1521
5233;1522
5234;1523
5235;1522
5236;1523
5237;1524
5238;1524
5239;1524
5240;1524
5241;1525
5242;1524
5243;1524
5244;1524
5245;1524
5246;1524
5247;1524
5248;1524
5249;1523
5250;1523
5251;1523
5252;1523
5253;1523
5254;1523
5255;1523
5256;1523
5257;1522
5258;1522
5259;1522
5260;1522
5261;1522
5262;1522
5263;1522
5264;1522
5265;1522
5266;1522
5267;1522
5268;1523
5269;1523
5270;1524
5271;1524
5272;1525
5273;1525
5274;1526
5275;1526
5276;1527
5277;1528
5278;1528
5279;1529
5280;1529
5281;1530
5282;1530
5283;1531
5284;1532
5285;1532
5286;1533
5287;1533
5288;1533
5289;1534
5290;1534
5291;1534
5292;1534
5293;1534
5294;1534
5295;1534
5296;1533
5297;1533
5298;1532
5299;1532
5300;1532
5301;1531
5302;1531
5303;1531
5304;1530
5305;1530
5306;1530
5307;1530
5308;1529
5309;1529
5310;1529
5311;1529
5312;1528
5313;1528
5314;1528
5315;1528
5316;1527
5317;1528
5318;1528
5319;1528
5320;1528
5321;1528
5322;1528
5323;1529
5324;1529
5325;1529
5326;1530
5327;1530
5328;1530
5329;1530
5330;1530
5331;1530
5332;1530
5333;1530
5334;1530
5335;1531
5336;1531
5337;1531
5338;1531
5339;1531
5340;1531
5341;1531
5342;1530
5343;1530
5344;1530
5345;1529
5346;1528
5347;1528
5348;1527
5349;1526
5350;1525
5351;1525
5352;1524
5353;1523
5354;1523
5355;1522
5356;1521
5357;1520
5358;1520
5359;1519
5360;1518
5361;1518
5362;1517
5363;1517
5364;1517
5365;1517
5366;1516
5367;1516
5368;1517
5369;1517
5370;1516
5371;1517
5372;1518
5373;1518
5374;1518
5375;1519
5376;1519
5377;1520
5378;1520
5379;1520
5380;1521
5381;1521
5382;1520
5383;1520
5384;1520
5385;1520
5386;1520
5387;1520
5388;1520
5389;1519
5390;1519
5391;1519
5392;1518
5393;1518
5394;1518
5395;1517
5396;1516
5397;1516
5398;1516
5399;1515
5400;1515
5401;1514
5402;1514
5403;1514
5404;1514
5405;1514
5406;1513
5407;1513
5408;1514
5409;1513
5410;1513
5411;1513
5412;1514
5413;1513
5414;1513
5415;1513
5416;1514
5417;1514
5418;1514
5419;1514
5420;1514
5421;1515
5422;1515
5423;1516
5424;1516
5425;1516
5426;1517
5427;1517
5428;1517
5429;1518
5430;1518
5431;1518
5432;1519
5433;1518
5434;1519
5435;1520
5436;1520
5437;1520
5438;1520
5439;1521
5440;1521
5441;1521
5442;1521
5443;1521
5444;1521
5445;1521
5446;1521
5447;1521
5448;1520
5449;1520
5450;1519
5451;1519
5452;1519
5453;1519
5454;1519
5455;1519
5456;1518
5457;1518
5458;1519
5459;1518
5460;1518
5461;1518
5462;1518
5463;1518
5464;1518
5465;1518
5466;1518
5467;1518
5468;1518
5469;1519
5470;1519
5471;1519
5472;1520
5473;1520
5474;1521
5475;1521
5476;1522
5477;1522
5478;1522
5479;1523
5480;1523
5481;1524
5482;1523
5483;1524
5484;1524
5485;1524
5486;1525
5487;1525
5488;1525
5489;1525
5490;1525
5491;1525
5492;1525
5493;1524
5494;1524
5495;1524
5496;1523
5497;1522
5498;1522
5499;1521
5500;1521
5501;1521
5502;1520
5503;1520
5504;1519
5505;1519
5506;1518
5507;1518
5508;1517
5509;1517
5510;1516
5511;1516
5512;1515
5513;1515
5514;1515
5515;1515
5516;1514
5517;1514
5518;1514
5519;1514
5520;1515
5521;1514
5522;1515
5523;1515
5524;1516
5525;1516
5526;1516
5527;1517
5528;1517
5529;1518
5530;1518
5531;1518
5532;1519
5533;1519
5534;1520
5535;1520
5536;1520
5537;1521
5538;1520
5539;1519
5540;1519
5541;1519
5542;1517
5543;1516
5544;1515
5545;1513
5546;1512
5547;1511
5548;1510
5549;1509
5550;1508
5551;1507
5552;1506
5553;1506
5554;1506
5555;1505
5556;1505
5557;1505
5558;1505
5559;1505
5560;1505
5561;1504
5562;1503
5563;1502
5564;1502
5565;1501
5566;1501
5567;1501
5568;1502
5569;1502
5570;1503
5571;1504
5572;1505
5573;1505
5574;1506
5575;1508
5576;1509
5577;1509
5578;1511
5579;1511
5580;1512
5581;1513
5582;1513
5583;1514
5584;1514
5585;1515
5586;1515
5587;1515
5588;1516
5589;1516
5590;1516
5591;1516
5592;1516
5593;1516
5594;1516
5595;1516
5596;1516
5597;1516
5598;1515
5599;1516
5600;1515
5601;1515
5602;1515
5603;1515
5604;1514
5605;1514
5606;1514
5607;1513
5608;1513
5609;1513
5610;1512
5611;1511
5612;1511
5613;1511
5614;1511
5615;1510
5616;1509
5617;1509
5618;1508
5619;1508
5620;1508
5621;1509
5622;1509
5623;1508
5624;1510
5625;1510
5626;1511
5627;1512
5628;1513
5629;1513
5630;1515
5631;1516
5632;1517
5633;1518
5634;1519
5635;1519
5636;1520
5637;1522
5638;1522
5639;1523
5640;1525
5641;1525
5642;1525
5643;1526
5644;1527
5645;1527
5646;1527
5647;1528
5648;1528
5649;1528
5650;1529
5651;1530
5652;1530
5653;1530
5654;1530
5655;1530
5656;1531
5657;1531
5658;1531
5659;1531
5660;1531
5661;1531
5662;1531
5663;1531
5664;1531
5665;1531
5666;1532
5667;1532
5668;1532
5669;1533
5670;1533
5671;1534
5672;1535
5673;1536
5674;1537
5675;1538
5676;1539
5677;1540
5678;1541
5679;1542
5680;1543
5681;1544
5682;1544
5683;1546
5684;1546
5685;1547
5686;1548
5687;1548
5688;1549
5689;1549
5690;1549
5691;1550
5692;1550
5693;1549
5694;1549
5695;1549
5696;1548
5697;1548
5698;1547
5699;1547
5700;1546
5701;1546
5702;1546
5703;1546
5704;1546
5705;1547
5706;1547
5707;1547
5708;1548
5709;1549
5710;1549
5711;1549
5712;1550
5713;1550
5714;1551
5715;1551
5716;1551
5717;1552
5718;1552
5719;1552
5720;1552
5721;1553
5722;1553
5723;1553
5724;1553
5725;1554
5726;1554
5727;1555
5728;1554
5729;1554
5730;1555
5731;1555
5732;1554
5733;1553
5734;1553
5735;1552
5736;1551
5737;1550
5738;1549
5739;1548
5740;1548
5741;1546
5742;1545
5743;1545
5744;1544
5745;1542
5746;1541
5747;1540
5748;1538
5749;1536
5750;1535
5751;1532
5752;1531
5753;1529
5754;1527
5755;1525
5756;1523
5757;1521
5758;1517
5759;1516
5760;1514
5761;1512
5762;1512
5763;1511
5764;1508
5765;1506
5766;1504
5767;1502
5768;1498
5769;1496
5770;1495
5771;1494
5772;1493
5773;1494
5774;1495
5775;1496
5776;1497
5777;1498
5778;1501
5779;1503
5780;1504
5781;1507
5782;1508
5783;1509
5784;1511
5785;1511
5786;1512
5787;1512
5788;1512
5789;1512
5790;1512
5791;1512
5792;1513
5793;1513
5794;1513
5795;1514
5796;1514
5797;1515
5798;1515
5799;1515
5800;1516
5801;1517
5802;1519
5803;1520
5804;1522
5805;1523
5806;1525
5807;1528
5808;1529
5809;1531
5810;1533
5811;1535
5812;1536
5813;1538
5814;1539
5815;1541
5816;1541
5817;1543
5818;1543
5819;1544
5820;1544
5821;1545
5822;1545
5823;1542
5824;1540
5825;1539
5826;1537
5827;1534
5828;1533
5829;1532
5830;1531
5831;1531
5832;1531
5833;1531
5834;1532
5835;1532
5836;1534
5837;1534
5838;1535
5839;1535
5840;1537
5841;1536
5842;1536
5843;1536
5844;1535
5845;1535
5846;1535
5847;1535
5848;1535
5849;1535
5850;1535
5851;1535
5852;1535
5853;1535
5854;1534
5855;1534
5856;1534
5857;1534
5858;1534
5859;1535
5860;1535
5861;1536
5862;1536
5863;1536
5864;1537
5865;1537
5866;1538
5867;1538
5868;1539
5869;1542
5870;1542
5871;1542
5872;1543
5873;1543
5874;1543
5875;1544
5876;1545
5877;1546
5878;1546
5879;1548
5880;1549
5881;1550
5882;1552
5883;1552
5884;1554
5885;1554
5886;1555
5887;1555
5888;1555
5889;1556
5890;1556
5891;1556
5892;1557
5893;1557
5894;1557
5895;1558
5896;1559
5897;1559
5898;1559
5899;1560
5900;1560
5901;1561
5902;1562
5903;1562
5904;1564
5905;1566
5906;1567
5907;1568
5908;1572
5909;1573
5910;1575
5911;1576
5912;1579
5913;1580
5914;1581
5915;1583
5916;1583
5917;1584
5918;1585
5919;1585
5920;1586
5921;1586
5922;1586
5923;1586
5924;1586
5925;1586
5926;1586
5927;1585
5928;1586
5929;1585
5930;1584
5931;1581
5932;1579
5933;1578
5934;1575
5935;1574
5936;1573
5937;1573
5938;1571
5939;1571
5940;1569
5941;1566
5942;1565
5943;1564
5944;1562
5945;1561
5946;1561
5947;1560
5948;1557
5949;1556
5950;1555
5951;1553
5952;1552
5953;1551
5954;1550
5955;1550
5956;1549
5957;1549
5958;1548
5959;1548
5960;1547
5961;1546
5962;1545
5963;1544
5964;1542
5965;1541
5966;1541
5967;1540
5968;1539
5969;1539
5970;1539
5971;1540
5972;1541
5973;1542
5974;1544
5975;1545
5976;1546
5977;1548
5978;1548
5979;1549
5980;1550
5981;1551
5982;1551
5983;1552
5984;1553
5985;1554
5986;1554
5987;1555
5988;1555
5989;1555
5990;1556
5991;1555
5992;1556
5993;1556
5994;1556
5995;1556
5996;1556
5997;1555
5998;1555
5999;1554
6000;1553
6001;1552
6002;1551
6003;1548
6004;1545
6005;1543
6006;1538
6007;1536
6008;1533
6009;1531
6010;1528
6011;1527
6012;1526
6013;1523
6014;1523
6015;1522
6016;1522
6017;1522
6018;1523
6019;1522
6020;1523
6021;1523
6022;1523
6023;1522
6024;1522
6025;1522
6026;1520
6027;1519
6028;1518
6029;1517
6030;1517
6031;1516
6032;1514
6033;1512
6034;1511
6035;1510
6036;1507
6037;1506
6038;1504
6039;1500
6040;1497
6041;1494
6042;1491
6043;1490
6044;1489
6045;1490
6046;1490
6047;1490
6048;1491
6049;1493
6050;1494
6051;1495
6052;1496
6053;1495
6054;1495
6055;1494
6056;1492
6057;1490
6058;1488
6059;1484
6060;1482
6061;1480
6062;1475
6063;1473
6064;1472
6065;1470
6066;1469
6067;1469
6068;1470
6069;1471
6070;1472
6071;1472
6072;1474
6073;1474
6074;1476
6075;1478
6076;1478
6077;1478
6078;1479
6079;1480
6080;1481
6081;1481
6082;1484
6083;1485
6084;1485
6085;1488
6086;1490
6087;1492
6088;1495
6089;1497
6090;1499
6091;1501
6092;1506
6093;1509
6094;1511
6095;1516
6096;1519
6097;1520
6098;1524
6099;1525
6100;1525
6101;1526
6102;1528
6103;1528
6104;1528
6105;1529
6106;1530
6107;1530
6108;1532
6109;1532
6110;1533
6111;1534
6112;1534
6113;1534
6114;1532
6115;1531
6116;1530
6117;1530
6118;1530
6119;1531
6120;1531
6121;1533
6122;1534
6123;1535
6124;1537
6125;1540
6126;1541
6127;1542
6128;1545
6129;1546
6130;1549
6131;1551
6132;1552
6133;1553
6134;1556
6135;1557
6136;1557
6137;1559
6138;1560
6139;1561
6140;1561
6141;1562
6142;1562
6143;1562
6144;1562
6145;1562
6146;1562
6147;1560
6148;1558
6149;1555
6150;1553
6151;1548
6152;1545
6153;1542
6154;1538
6155;1535
6156;1533
6157;1529
6158;1526
6159;1523
6160;1517
6161;1507
6162;1502
6163;1498
6164;1491
6165;1486
6166;1483
6167;1479
6168;1478
6169;1477
6170;1478
6171;1479
6172;1480
6173;1481
6174;1485
6175;1487
6176;1488
6177;1493
6178;1495
6179;1497
6180;1500
6181;1501
6182;1503
6183;1505
6184;1507
6185;1507
6186;1508
6187;1509
6188;1509
6189;1510
6190;1511
6191;1512
6192;1513
6193;1513
6194;1513
6195;1513
6196;1512
6197;1513
6198;1513
6199;1512
6200;1508
6201;1503
6202;1499
6203;1490
6204;1486
6205;1482
6206;1476
6207;1473
6208;1471
6209;1468
6210;1465
6211;1464
6212;1463
6213;1462
6214;1463
6215;1463
6216;1465
6217;1466
6218;1467
6219;1469
6220;1471
6221;1472
6222;1473
6223;1476
6224;1477
6225;1479
6226;1483
6227;1486
6228;1489
6229;1494
6230;1495
6231;1496
6232;1497
6233;1501
6234;1502
6235;1503
6236;1506
6237;1507
6238;1508
6239;1511
6240;1513
6241;1514
6242;1517
6243;1517
6244;1518
6245;1518
6246;1518
6247;1518
6248;1518
6249;1518
6250;1517
6251;1517
6252;1516
6253;1516
6254;1516
6255;1515
6256;1514
6257;1514
6258;1513
6259;1512
6260;1511
6261;1511
6262;1510
6263;1510
6264;1509
6265;1505
6266;1501
6267;1499
6268;1497
6269;1491
6270;1486
6271;1481
6272;1472
6273;1468
6274;1464
6275;1459
6276;1458
6277;1457
6278;1459
6279;1460
6280;1461
6281;1463
6282;1466
6283;1466
6284;1467
6285;1468
6286;1467
6287;1467
6288;1466
6289;1465
6290;1465
6291;1464
6292;1463
6293;1462
6294;1459
6295;1453
6296;1451
6297;1449
6298;1445
6299;1442
6300;1439
6301;1437
6302;1434
6303;1433
6304;1433
6305;1434
6306;1436
6307;1437
6308;1438
6309;1439
6310;1439
6311;1439
6312;1438
6313;1436
6314;1434
6315;1431
6316;1430
6317;1430
6318;1431
6319;1433
6320;1435
6321;1439
6322;1441
6323;1443
6324;1446
6325;1447
6326;1449
6327;1451
6328;1453
6329;1454
6330;1455
6331;1459
6332;1460
6333;1463
6334;1467
6335;1470
6336;1472
6337;1474
6338;1479
6339;1482
6340;1483
6341;1486
6342;1487
6343;1488
6344;1490
6345;1492
6346;1493
6347;1496
6348;1498
6349;1499
6350;1501
6351;1504
6352;1504
6353;1505
6354;1507
6355;1507
6356;1506
6357;1505
6358;1505
6359;1504
6360;1504
6361;1504
6362;1502
6363;1502
6364;1500
6365;1500
6366;1499
6367;1498
6368;1496
6369;1495
6370;1491
6371;1489
6372;1486
6373;1483
6374;1479
6375;1477
6376;1476
6377;1474
6378;1473
6379;1472
6380;1471
6381;1470
6382;1470
6383;1470
6384;1470
6385;1470
6386;1470
6387;1472
6388;1472
6389;1472
6390;1472
6391;1472
6392;1473
6393;1475
6394;1475
6395;1476
6396;1477
6397;1480
6398;1482
6399;1484
6400;1487
6401;1487
6402;1488
6403;1490
6404;1490
6405;1490
6406;1490
6407;1490
6408;1491
6409;1490
6410;1490
6411;1490
6412;1490
6413;1489
6414;1488
6415;1487
6416;1485
6417;1484
6418;1483
6419;1483
6420;1482
6421;1482
6422;1481
6423;1480
6424;1480
6425;1479
6426;1479
6427;1479
6428;1479
6429;1475
6430;1473
6431;1472
6432;1471
6433;1471
6434;1470
6435;1471
6436;1473
6437;1475
6438;1476
6439;1479
6440;1480
6441;1481
6442;1481
6443;1483
6444;1483
6445;1483
6446;1485
6447;1485
6448;1484
6449;1484
6450;1484
6451;1484
6452;1485
6453;1485
6454;1485
6455;1486
6456;1486
6457;1487
6458;1488
6459;1490
6460;1491
6461;1492
6462;1494
6463;1495
6464;1496
6465;1496
6466;1497
6467;1497
6468;1498
6469;1499
6470;1499
6471;1500
6472;1500
6473;1501
6474;1502
6475;1504
6476;1505
6477;1506
6478;1507
6479;1508
6480;1509
6481;1510
6482;1511
6483;1512
6484;1512
6485;1510
6486;1508
6487;1506
6488;1503
6489;1497
6490;1495
6491;1493
6492;1491
6493;1491
6494;1491
6495;1494
6496;1495
6497;1498
6498;1501
6499;1502
6500;1504
6501;1504
6502;1505
6503;1505
6504;1505
6505;1506
6506;1506
6507;1505
6508;1503
6509;1501
6510;1499
6511;1498
6512;1494
6513;1493
6514;1491
6515;1485
6516;1478
6517;1471
6518;1458
6519;1452
6520;1447
6521;1439
6522;1435
6523;1433
6524;1431
6525;1430
6526;1430
6527;1431
6528;1436
6529;1438
6530;1441
6531;1447
6532;1450
6533;1453
6534;1458
6535;1461
6536;1463
6537;1466
6538;1472
6539;1475
6540;1478
6541;1483
6542;1485
6543;1487
6544;1491
6545;1492
6546;1493
6547;1494
6548;1495
6549;1494
6550;1494
6551;1493
6552;1492
6553;1492
6554;1491
6555;1491
6556;1491
6557;1492
6558;1493
6559;1494
6560;1495
6561;1495
6562;1495
6563;1494
6564;1491
6565;1490
6566;1488
6567;1483
6568;1482
6569;1480
6570;1479
6571;1476
6572;1476
6573;1475
6574;1476
6575;1477
6576;1478
6577;1479
6578;1479
6579;1479
6580;1479
6581;1479
6582;1479
6583;1479
6584;1479
6585;1479
6586;1480
6587;1480
6588;1481
6589;1482
6590;1485
6591;1486
6592;1487
6593;1488
6594;1491
6595;1492
6596;1493
6597;1496
6598;1498
6599;1500
6600;1502
6601;1504
6602;1505
6603;1506
6604;1508
6605;1509
6606;1510
6607;1512
6608;1511
6609;1507
6610;1500
6611;1496
6612;1492
6613;1485
6614;1483
6615;1481
6616;1480
6617;1477
6618;1475
6619;1474
6620;1472
6621;1471
6622;1470
6623;1469
6624;1469
6625;1470
6626;1471
6627;1474
6628;1476
6629;1478
6630;1483
6631;1485
6632;1488
6633;1491
6634;1491
6635;1491
6636;1491
6637;1493
6638;1494
6639;1495
6640;1499
6641;1502
6642;1505
6643;1511
6644;1514
6645;1517
6646;1522
6647;1524
6648;1526
6649;1527
6650;1527
6651;1527
6652;1526
6653;1527
6654;1527
6655;1528
6656;1528
6657;1528
6658;1528
6659;1526
6660;1524
6661;1523
6662;1521
6663;1518
6664;1517
6665;1515
6666;1513
6667;1512
6668;1511
6669;1510
6670;1510
6671;1510
6672;1510
6673;1511
6674;1511
6675;1511
6676;1511
6677;1512
6678;1512
6679;1514
6680;1515
6681;1515
6682;1517
6683;1518
6684;1519
6685;1521
6686;1521
6687;1521
6688;1520
6689;1520
6690;1520
6691;1520
6692;1518
6693;1517
6694;1514
6695;1509
6696;1506
6697;1504
6698;1501
6699;1500
6700;1500
6701;1500
6702;1502
6703;1503
6704;1503
6705;1505
6706;1506
6707;1508
6708;1508
6709;1510
6710;1510
6711;1510
6712;1509
6713;1509
6714;1508
6715;1506
6716;1505
6717;1505
6718;1504
6719;1504
6720;1504
6721;1504
6722;1505
6723;1507
6724;1508
6725;1511
6726;1513
6727;1514
6728;1517
6729;1518
6730;1520
6731;1522
6732;1523
6733;1524
6734;1525
6735;1527
6736;1528
6737;1529
6738;1531
6739;1532
6740;1532
6741;1533
6742;1533
6743;1533
6744;1533
6745;1532
6746;1530
6747;1529
6748;1526
6749;1524
6750;1522
6751;1520
6752;1518
6753;1518
6754;1517
6755;1516
6756;1516
6757;1516
6758;1514
6759;1513
6760;1512
6761;1511
6762;1509
6763;1509
6764;1508
6765;1507
6766;1507
6767;1504
6768;1502
6769;1500
6770;1498
6771;1494
6772;1493
6773;1492
6774;1487
6775;1483
6776;1477
6777;1467
6778;1463
6779;1459
6780;1455
6781;1448
6782;1445
6783;1444
6784;1443
6785;1444
6786;1446
6787;1450
6788;1453
6789;1456
6790;1462
6791;1464
6792;1467
6793;1469
6794;1472
6795;1472
6796;1471
6797;1470
6798;1469
6799;1469
6800;1470
6801;1471
6802;1472
6803;1472
6804;1472
6805;1472
6806;1472
6807;1474
6808;1474
6809;1475
6810;1473
6811;1473
6812;1473
6813;1474
6814;1474
6815;1474
6816;1475
6817;1474
6818;1474
6819;1474
6820;1472
6821;1471
6822;1470
6823;1467
6824;1466
6825;1466
6826;1466
6827;1468
6828;1469
6829;1472
6830;1476
6831;1478
6832;1480
6833;1484
6834;1487
6835;1489
6836;1493
6837;1495
6838;1497
6839;1498
6840;1501
6841;1502
6842;1503
6843;1507
6844;1508
6845;1510
6846;1514
6847;1515
6848;1517
6849;1517
6850;1518
6851;1518
6852;1518
6853;1517
6854;1516
6855;1515
6856;1512
6857;1509
6858;1507
6859;1503
6860;1500
6861;1497
6862;1494
6863;1489
6864;1488
6865;1486
6866;1484
6867;1484
6868;1484
6869;1484
6870;1485
6871;1485
6872;1485
6873;1487
6874;1488
6875;1488
6876;1490
6877;1491
6878;1491
6879;1492
6880;1492
6881;1493
6882;1494
6883;1494
6884;1495
6885;1495
6886;1497
6887;1498
6888;1498
6889;1501
6890;1501
6891;1502
6892;1503
6893;1503
6894;1504
6895;1504
6896;1506
6897;1505
6898;1505
6899;1502
6900;1500
6901;1499
6902;1496
6903;1495
6904;1494
6905;1492
6906;1491
6907;1491
6908;1491
6909;1492
6910;1492
6911;1493
6912;1495
6913;1496
6914;1496
6915;1498
6916;1499
6917;1500
6918;1501
6919;1501
6920;1502
6921;1502
6922;1502
6923;1503
6924;1503
6925;1504
6926;1505
6927;1505
6928;1505
6929;1505
6930;1506
6931;1506
6932;1507
6933;1507
6934;1505
6935;1502
6936;1500
6937;1499
6938;1496
6939;1496
6940;1495
6941;1494
6942;1494
6943;1495
6944;1495
6945;1496
6946;1497
6947;1497
6948;1499
6949;1499
6950;1500
6951;1501
6952;1501
6953;1501
6954;1500
6955;1500
6956;1499
6957;1499
6958;1499
6959;1498
6960;1498
6961;1498
6962;1498
6963;1497
6964;1497
6965;1498
6966;1498
6967;1498
6968;1499
6969;1500
6970;1500
6971;1500
6972;1500
6973;1500
6974;1500
6975;1498
6976;1498
6977;1494
6978;1491
6979;1486
6980;1482
6981;1475
6982;1473
6983;1471
6984;1471
6985;1471
6986;1473
6987;1478
6988;1480
6989;1483
6990;1485
6991;1491
6992;1492
6993;1494
6994;1491
6995;1486
6996;1484
6997;1477
6998;1474
6999;1471
7000;1469
7001;1468
7002;1469
7003;1469
7004;1468
7005;1467
7006;1465
7007;1462
7008;1460
7009;1458
7010;1456
7011;1455
7012;1455
7013;1455
7014;1456
7015;1455
7016;1454
7017;1454
7018;1454
7019;1454
7020;1453
7021;1451
7022;1449
7023;1442
7024;1439
7025;1436
7026;1435
7027;1433
7028;1433
7029;1433
7030;1436
7031;1438
7032;1441
7033;1447
7034;1451
7035;1454
7036;1457
7037;1462
7038;1465
7039;1467
7040;1471
7041;1473
7042;1475
7043;1478
7044;1479
7045;1480
7046;1482
7047;1484
7048;1485
7049;1486
7050;1489
7051;1490
7052;1491
7053;1493
7054;1493
7055;1493
7056;1490
7057;1488
7058;1485
7059;1483
7060;1479
7061;1477
7062;1474
7063;1467
7064;1465
7065;1462
7066;1458
7067;1456
7068;1455
7069;1456
7070;1456
7071;1457
7072;1459
7073;1462
7074;1464
7075;1466
7076;1470
7077;1472
7078;1474
7079;1478
7080;1479
7081;1481
7082;1482
7083;1484
7084;1485
7085;1486
7086;1489
7087;1491
7088;1493
7089;1496
7090;1497
7091;1498
7092;1500
7093;1501
7094;1502
7095;1502
7096;1504
7097;1504
7098;1504
7099;1505
7100;1505
7101;1505
7102;1505
7103;1505
7104;1505
7105;1504
7106;1503
7107;1502
7108;1501
7109;1498
7110;1497
7111;1494
7112;1492
7113;1489
7114;1486
7115;1482
7116;1480
7117;1477
7118;1474
7119;1469
7120;1467
7121;1466
7122;1460
7123;1457
7124;1455
7125;1452
7126;1452
7127;1452
7128;1453
7129;1456
7130;1456
7131;1458
7132;1461
7133;1463
7134;1465
7135;1470
7136;1472
7137;1474
7138;1479
7139;1481
7140;1483
7141;1485
7142;1488
7143;1489
7144;1488
7145;1486
7146;1485
7147;1483
7148;1481
7149;1480
7150;1480
7151;1480
7152;1480
7153;1480
7154;1481
7155;1482
7156;1483
7157;1484
7158;1486
7159;1486
7160;1487
7161;1488
7162;1487
7163;1487
7164;1487
7165;1486
7166;1486
7167;1485
7168;1482
7169;1480
7170;1478
7171;1476
7172;1476
7173;1476
7174;1476
7175;1477
7176;1477
7177;1477
7178;1477
7179;1477
7180;1477
7181;1469
7182;1464
7183;1459
7184;1451
7185;1447
7186;1445
7187;1443
7188;1442
7189;1443
7190;1445
7191;1449
7192;1451
7193;1454
7194;1456
7195;1456
7196;1454
7197;1450
7198;1444
7199;1441
7200;1439
7201;1436
7202;1434
7203;1431
7204;1428
7205;1426
7206;1426
7207;1426
7208;1427
7209;1428
7210;1430
7211;1435
7212;1438
7213;1441
7214;1447
7215;1450
7216;1454
7217;1459
7218;1462
7219;1464
7220;1465
7221;1467
7222;1467
7223;1466
7224;1464
7225;1461
7226;1460
7227;1457
7228;1456
7229;1457
7230;1456
7231;1456
7232;1457
7233;1458
7234;1457
7235;1457
7236;1455
7237;1454
7238;1453
7239;1453
7240;1454
7241;1455
7242;1457
7243;1459
7244;1462
7245;1462
7246;1463
7247;1465
7248;1466
7249;1467
7250;1467
7251;1467
7252;1467
7253;1467
7254;1467
7255;1467
7256;1466
7257;1465
7258;1464
7259;1464
7260;1464
7261;1463
7262;1462
7263;1456
7264;1452
7265;1448
7266;1443
7267;1437
7268;1434
7269;1432
7270;1426
7271;1423
7272;1422
7273;1421
7274;1422
7275;1422
7276;1423
7277;1425
7278;1427
7279;1429
7280;1434
7281;1436
7282;1438
7283;1444
7284;1446
7285;1449
7286;1453
7287;1454
7288;1455
7289;1456
7290;1458
7291;1459
7292;1460
7293;1462
7294;1463
7295;1464
7296;1462
7297;1460
7298;1458
7299;1455
7300;1454
7301;1453
7302;1452
7303;1452
7304;1452
7305;1452
7306;1454
7307;1455
7308;1456
7309;1459
7310;1460
7311;1462
7312;1465
7313;1466
7314;1467
7315;1467
7316;1467
7317;1466
7318;1466
7319;1466
7320;1466
7321;1466
7322;1466
7323;1466
7324;1466
7325;1467
7326;1470
7327;1472
7328;1474
7329;1479
7330;1481
7331;1483
7332;1486
7333;1488
7334;1489
7335;1491
7336;1492
7337;1492
7338;1490
7339;1487
7340;1486
7341;1484
7342;1481
7343;1481
7344;1480
7345;1481
7346;1482
7347;1483
7348;1482
7349;1481
7350;1479
7351;1478
7352;1474
7353;1473
7354;1470
7355;1463
7356;1460
7357;1458
7358;1456
7359;1453
7360;1453
7361;1454
7362;1456
7363;1458
7364;1460
7365;1465
7366;1467
7367;1468
7368;1470
7369;1469
7370;1468
7371;1466
7372;1460
7373;1458
7374;1455
7375;1452
7376;1451
7377;1451
7378;1452
7379;1453
7380;1454
7381;1457
7382;1459
7383;1460
7384;1461
7385;1464
7386;1464
7387;1465
7388;1466
7389;1467
7390;1468
7391;1470
7392;1472
7393;1474
7394;1476
7395;1480
7396;1482
7397;1484
7398;1488
7399;1489
7400;1491
7401;1494
7402;1493
7403;1493
7404;1489
7405;1486
7406;1483
7407;1480
7408;1474
7409;1471
7410;1468
7411;1464
7412;1462
7413;1461
7414;1459
7415;1458
7416;1457
7417;1455
7418;1454
7419;1453
7420;1452
7421;1451
7422;1450
7423;1450
7424;1450
7425;1451
7426;1451
7427;1453
7428;1454
7429;1456
7430;1457
7431;1460
7432;1460
7433;1461
7434;1463
7435;1464
7436;1464
7437;1467
7438;1468
7439;1469
7440;1470
7441;1474
7442;1475
7443;1477
7444;1480
7445;1481
7446;1483
7447;1484
7448;1485
7449;1485
7450;1482
7451;1479
7452;1477
7453;1474
7454;1471
7455;1469
7456;1467
7457;1465
7458;1464
7459;1465
7460;1467
7461;1468
7462;1468
7463;1469
7464;1470
7465;1470
7466;1470
7467;1468
7468;1467
7469;1463
7470;1451
7471;1443
7472;1437
7473;1431
7474;1422
7475;1419
7476;1418
7477;1417
7478;1418
7479;1419
7480;1422
7481;1424
7482;1424
7483;1423
7484;1422
7485;1418
7486;1415
7487;1410
7488;1408
7489;1407
7490;1408
7491;1409
7492;1411
7493;1418
7494;1421
7495;1425
7496;1432
7497;1435
7498;1439
7499;1443
7500;1450
7501;1454
7502;1457
7503;1463
7504;1465
7505;1467
7506;1470
7507;1471
7508;1472
7509;1472
7510;1470
7511;1469
7512;1468
7513;1466
7514;1465
7515;1464
7516;1462
7517;1462
7518;1462
7519;1462
7520;1463
7521;1463
7522;1463
7523;1465
7524;1465
7525;1466
7526;1469
7527;1470
7528;1472
7529;1474
7530;1474
7531;1475
7532;1474
7533;1472
7534;1471
7535;1470
7536;1468
7537;1466
7538;1464
7539;1462
7540;1461
7541;1460
7542;1458
7543;1458
7544;1458
7545;1459
7546;1460
7547;1462
7548;1463
7549;1466
7550;1468
7551;1469
7552;1470
7553;1470
7554;1470
7555;1469
7556;1468
7557;1467
7558;1467
7559;1467
7560;1468
7561;1469
7562;1469
7563;1470
7564;1470
7565;1468
7566;1466
7567;1461
7568;1455
7569;1445
7570;1441
7571;1438
7572;1435
7573;1434
7574;1434
7575;1437
7576;1440
7577;1442
7578;1445
7579;1451
7580;1454
7581;1456
7582;1459
7583;1460
7584;1461
7585;1464
7586;1466
7587;1467
7588;1470
7589;1471
7590;1473
7591;1475
7592;1478
7593;1480
7594;1482
7595;1485
7596;1486
7597;1487
7598;1487
7599;1487
7600;1484
7601;1481
7602;1475
7603;1473
7604;1472
7605;1470
7606;1470
7607;1471
7608;1471
7609;1472
7610;1471
7611;1467
7612;1466
7613;1465
7614;1464
7615;1462
7616;1462
7617;1463
7618;1464
7619;1465
7620;1466
7621;1465
7622;1463
7623;1462
7624;1460
7625;1459
7626;1457
7627;1457
7628;1457
7629;1457
7630;1458
7631;1460
7632;1462
7633;1464
7634;1468
7635;1470
7636;1472
7637;1474
7638;1477
7639;1479
7640;1480
7641;1482
7642;1483
7643;1485
7644;1486
7645;1486
7646;1485
7647;1484
7648;1483
7649;1481
7650;1479
7651;1475
7652;1472
7653;1469
7654;1459
7655;1453
7656;1449
7657;1440
7658;1437
7659;1434
7660;1432
7661;1429
7662;1426
7663;1424
7664;1419
7665;1417
7666;1416
7667;1414
7668;1414
7669;1414
7670;1411
7671;1410
7672;1410
7673;1409
7674;1411
7675;1413
7676;1416
7677;1423
7678;1426
7679;1429
7680;1437
7681;1440
7682;1444
7683;1447
7684;1453
7685;1456
7686;1458
7687;1462
7688;1463
7689;1464
7690;1467
7691;1469
7692;1470
7693;1472
7694;1473
7695;1474
7696;1475
7697;1478
7698;1478
7699;1479
7700;1481
7701;1481
7702;1483
7703;1485
7704;1485
7705;1486
7706;1487
7707;1488
7708;1487
7709;1487
7710;1486
7711;1485
7712;1484
7713;1480
7714;1477
7715;1474
7716;1467
7717;1463
7718;1460
7719;1457
7720;1453
7721;1452
7722;1452
7723;1453
7724;1454
7725;1456
7726;1460
7727;1461
7728;1463
7729;1464
7730;1466
7731;1467
7732;1467
7733;1466
7734;1465
7735;1464
7736;1461
7737;1459
7738;1457
7739;1456
7740;1456
7741;1457
7742;1458
7743;1462
7744;1464
7745;1466
7746;1470
7747;1472
7748;1474
7749;1478
7750;1478
7751;1477
7752;1476
7753;1476
7754;1476
7755;1476
7756;1475
7757;1476
7758;1477
7759;1479
7760;1480
7761;1482
7762;1484
7763;1484
7764;1485
7765;1485
7766;1482
7767;1480
7768;1478
7769;1475
7770;1474
7771;1472
7772;1469
7773;1468
7774;1467
7775;1468
7776;1469
7777;1471
7778;1472
7779;1476
7780;1478
7781;1480
7782;1481
7783;1481
7784;1480
7785;1478
7786;1477
7787;1476
7788;1475
7789;1472
7790;1467
7791;1463
7792;1456
7793;1454
7794;1452
7795;1452
7796;1453
7797;1454
7798;1458
7799;1461
7800;1464
7801;1467
7802;1473
7803;1475
7804;1477
7805;1481
7806;1483
7807;1486
7808;1488
7809;1489
7810;1490
7811;1491
7812;1490
7813;1487
7814;1484
7815;1475
7816;1471
7817;1468
7818;1462
7819;1460
7820;1458
7821;1457
7822;1457
7823;1456
7824;1455
7825;1455
7826;1456
7827;1458
7828;1462
7829;1465
7830;1468
7831;1476
7832;1479
7833;1483
7834;1485
7835;1488
7836;1489
7837;1490
7838;1493
7839;1494
7840;1494
7841;1494
7842;1494
7843;1494
7844;1494
7845;1494
7846;1494
7847;1493
7848;1489
7849;1486
7850;1484
7851;1481
7852;1479
7853;1478
7854;1478
7855;1478
7856;1480
7857;1484
7858;1485
7859;1488
7860;1490
7861;1493
7862;1494
7863;1495
7864;1497
7865;1497
7866;1497
7867;1493
7868;1491
7869;1486
7870;1479
7871;1458
7872;1447
7873;1437
7874;1425
7875;1421
7876;1419
7877;1419
7878;1420
7879;1423
7880;1427
7881;1436
7882;1441
7883;1445
7884;1454
7885;1456
7886;1457
7887;1461
7888;1463
7889;1465
7890;1466
7891;1468
7892;1468
7893;1469
7894;1470
7895;1470
7896;1470
7897;1470
7898;1470
7899;1471
7900;1473
7901;1474
7902;1476
7903;1477
7904;1480
7905;1482
7906;1484
7907;1486
7908;1487
7909;1487
7910;1488
7911;1488
7912;1488
7913;1488
7914;1488
7915;1489
7916;1489
7917;1490
7918;1490
7919;1489
7920;1487
7921;1486
7922;1486
7923;1485
7924;1483
7925;1479
7926;1472
7927;1458
7928;1451
7929;1446
7930;1439
7931;1438
7932;1438
7933;1444
7934;1449
7935;1454
7936;1459
7937;1469
7938;1474
7939;1478
7940;1484
7941;1486
7942;1489
7943;1494
7944;1496
7945;1497
7946;1500
7947;1502
7948;1503
7949;1504
7950;1505
7951;1506
7952;1507
7953;1511
7954;1512
7955;1514
7956;1516
7957;1516
7958;1517
7959;1518
7960;1519
7961;1519
7962;1519
7963;1517
7964;1516
7965;1514
7966;1511
7967;1511
7968;1510
7969;1508
7970;1508
7971;1508
7972;1507
7973;1508
7974;1508
7975;1506
7976;1504
7977;1503
7978;1501
7979;1499
7980;1497
7981;1496
7982;1494
7983;1494
7984;1495
7985;1495
7986;1498
7987;1500
7988;1501
7989;1504
7990;1506
7991;1509
7992;1512
7993;1514
7994;1515
7995;1519
7996;1520
7997;1521
7998;1521
7999;1521
8000;1520
8001;1520
8002;1519
8003;1519
8004;1517
8005;1513
8006;1510
8007;1506
8008;1501
8009;1492
8010;1488
8011;1485
8012;1481
8013;1480
8014;1480
8015;1482
8016;1484
8017;1486
8018;1490
8019;1491
8020;1492
8021;1492
8022;1488
8023;1486
8024;1484
8025;1481
8026;1480
8027;1480
8028;1479
8029;1480
8030;1481
8031;1482
8032;1484
8033;1486
8034;1488
8035;1490
8036;1489
8037;1489
8038;1490
8039;1490
8040;1491
8041;1492
8042;1491
8043;1491
8044;1490
8045;1488
8046;1489
8047;1489
8048;1490
8049;1490
8050;1492
8051;1492
8052;1492
8053;1493
8054;1492
8055;1481
8056;1475
8057;1470
8058;1463
8059;1461
8060;1461
8061;1462
8062;1464
8063;1467
8064;1471
8065;1480
8066;1483
8067;1487
8068;1492
8069;1493
8070;1494
8071;1496
8072;1496
8073;1496
8074;1494
8075;1491
8076;1488
8077;1487
8078;1485
8079;1484
8080;1483
8081;1481
8082;1480
8083;1480
8084;1482
8085;1483
8086;1485
8087;1489
8088;1491
8089;1494
8090;1497
8091;1503
8092;1506
8093;1509
8094;1516
8095;1518
8096;1521
8097;1524
8098;1526
8099;1527
8100;1528
8101;1531
8102;1532
8103;1532
8104;1533
8105;1533
8106;1534
8107;1534
8108;1534
8109;1533
8110;1529
8111;1526
8112;1521
8113;1515
8114;1503
8115;1498
8116;1493
8117;1487
8118;1485
8119;1484
8120;1482
8121;1481
8122;1482
8123;1481
8124;1481
8125;1481
8126;1480
8127;1477
8128;1475
8129;1473
8130;1472
8131;1471
8132;1471
8133;1473
8134;1475
8135;1477
8136;1480
8137;1485
8138;1488
8139;1491
8140;1497
8141;1501
8142;1503
8143;1508
8144;1510
8145;1512
8146;1515
8147;1517
8148;1517
8149;1516
8150;1515
8151;1515
8152;1515
8153;1515
8154;1514
8155;1511
8156;1508
8157;1507
8158;1507
8159;1507
8160;1508
8161;1509
8162;1511
8163;1515
8164;1517
8165;1519
8166;1523
8167;1524
8168;1525
8169;1526
8170;1526
8171;1526
8172;1527
8173;1527
8174;1526
8175;1525
8176;1521
8177;1518
8178;1514
8179;1506
8180;1503
8181;1501
8182;1499
8183;1498
8184;1499
8185;1501
8186;1504
8187;1506
8188;1508
8189;1511
8190;1512
8191;1513
8192;1514
8193;1514
8194;1515
8195;1514
8196;1515
8197;1515
8198;1513
8199;1506
8200;1501
8201;1496
8202;1487
8203;1485
8204;1483
8205;1483
8206;1484
8207;1486
8208;1488
8209;1493
8210;1496
8211;1498
8212;1503
8213;1505
8214;1507
8215;1510
8216;1511
8217;1512
8218;1513
8219;1512
8220;1511
8221;1508
8222;1503
8223;1502
8224;1500
8225;1497
8226;1497
8227;1497
8228;1499
8229;1499
8230;1501
8231;1502
8232;1505
8233;1507
8234;1508
8235;1512
8236;1514
8237;1515
8238;1519
8239;1521
8240;1523
8241;1527
8242;1529
8243;1531
8244;1533
8245;1535
8246;1536
8247;1536
8248;1534
8249;1533
8250;1531
8251;1526
8252;1525
8253;1524
8254;1523
8255;1523
8256;1523
8257;1524
8258;1526
8259;1527
8260;1529
8261;1532
8262;1532
8263;1532
8264;1531
8265;1530
8266;1530
8267;1530
8268;1529
8269;1525
8270;1521
8271;1515
8272;1513
8273;1511
8274;1510
8275;1511
8276;1512
8277;1514
8278;1516
8279;1517
8280;1518
8281;1519
8282;1519
8283;1518
8284;1519
8285;1519
8286;1519
8287;1519
8288;1518
8289;1519
8290;1519
8291;1520
8292;1520
8293;1520
8294;1521
8295;1521
8296;1523
8297;1525
8298;1526
8299;1527
8300;1529
8301;1531
8302;1533
8303;1534
8304;1534
8305;1534
8306;1533
8307;1530
8308;1528
8309;1526
8310;1517
8311;1511
8312;1505
8313;1500
8314;1494
8315;1491
8316;1488
8317;1489
8318;1489
8319;1491
8320;1495
8321;1497
8322;1499
8323;1502
8324;1504
8325;1505
8326;1507
8327;1510
8328;1510
8329;1508
8330;1498
8331;1491
8332;1483
8333;1468
8334;1461
8335;1455
8336;1451
8337;1448
8338;1449
8339;1451
8340;1459
8341;1463
8342;1468
8343;1477
8344;1482
8345;1486
8346;1494
8347;1497
8348;1499
8349;1501
8350;1506
8351;1508
8352;1511
8353;1515
8354;1517
8355;1520
8356;1525
8357;1527
8358;1530
8359;1532
8360;1534
8361;1534
8362;1534
8363;1534
8364;1532
8365;1531
8366;1529
8367;1528
8368;1528
8369;1527
8370;1527
8371;1528
8372;1528
8373;1529
8374;1530
8375;1531
8376;1532
8377;1533
8378;1532
8379;1528
8380;1523
8381;1519
8382;1510
8383;1507
8384;1505
8385;1501
8386;1493
8387;1490
8388;1489
8389;1489
8390;1491
8391;1493
8392;1500
8393;1503
8394;1507
8395;1511
8396;1518
8397;1521
8398;1523
8399;1528
8400;1530
8401;1533
8402;1536
8403;1538
8404;1539
8405;1542
8406;1544
8407;1545
8408;1544
8409;1542
8410;1541
8411;1540
8412;1537
8413;1535
8414;1534
8415;1534
8416;1534
8417;1534
8418;1536
8419;1537
8420;1539
8421;1539
8422;1541
8423;1541
8424;1541
8425;1539
8426;1536
8427;1533
8428;1528
8429;1525
8430;1523
8431;1521
8432;1520
8433;1520
8434;1520
8435;1522
8436;1523
8437;1521
8438;1519
8439;1518
8440;1518
8441;1517
8442;1518
8443;1519
8444;1520
8445;1523
8446;1522
8447;1522
8448;1512
8449;1503
8450;1493
8451;1476
8452;1469
8453;1464
8454;1460
8455;1459
8456;1461
8457;1465
8458;1474
8459;1478
8460;1483
8461;1491
8462;1495
8463;1498
8464;1504
8465;1507
8466;1510
8467;1513
8468;1518
8469;1520
8470;1522
8471;1526
8472;1528
8473;1530
8474;1535
8475;1537
8476;1539
8477;1540
8478;1541
8479;1539
8480;1533
8481;1523
8482;1519
8483;1516
8484;1512
8485;1512
8486;1512
8487;1516
8488;1517
8489;1518
8490;1519
8491;1521
8492;1521
8493;1521
8494;1522
8495;1523
8496;1523
8497;1521
8498;1519
8499;1516
8500;1509
8501;1500
8502;1491
8503;1481
8504;1465
8505;1458
8506;1453
8507;1446
8508;1444
8509;1444
8510;1448
8511;1451
8512;1456
8513;1460
8514;1470
8515;1475
8516;1480
8517;1490
8518;1494
8519;1497
8520;1502
8521;1502
8522;1502
8523;1501
8524;1500
8525;1499
8526;1496
8527;1489
8528;1487
8529;1485
8530;1478
8531;1476
8532;1475
8533;1475
8534;1474
8535;1474
8536;1473
8537;1473
8538;1474
8539;1475
8540;1478
8541;1480
8542;1482
8543;1486
8544;1488
8545;1489
8546;1492
8547;1493
8548;1494
8549;1495
8550;1497
8551;1498
8552;1497
8553;1495
8554;1495
8555;1496
8556;1497
8557;1498
8558;1500
8559;1506
8560;1509
8561;1512
8562;1515
8563;1520
8564;1520
8565;1521
8566;1521
8567;1522
8568;1521
8569;1521
8570;1522
8571;1522
8572;1522
8573;1520
8574;1518
8575;1516
8576;1504
8577;1499
8578;1493
8579;1483
8580;1480
8581;1477
8582;1475
8583;1470
8584;1469
8585;1469
8586;1473
8587;1475
8588;1478
8589;1484
8590;1488
8591;1492
8592;1498
8593;1501
8594;1504
8595;1507
8596;1513
8597;1516
8598;1518
8599;1523
8600;1526
8601;1527
8602;1532
8603;1534
8604;1536
8605;1540
8606;1541
8607;1540
8608;1540
8609;1540
8610;1540
8611;1541
8612;1542
8613;1543
8614;1543
8615;1540
8616;1539
8617;1537
8618;1533
8619;1531
8620;1528
8621;1525
8622;1518
8623;1515
8624;1513
8625;1509
8626;1509
8627;1508
8628;1508
8629;1508
8630;1509
8631;1508
8632;1507
8633;1506
8634;1504
8635;1503
8636;1503
8637;1503
8638;1507
8639;1509
8640;1510
8641;1515
8642;1517
8643;1520
8644;1521
8645;1525
8646;1527
8647;1529
8648;1533
8649;1535
8650;1537
8651;1539
8652;1540
8653;1541
8654;1542
8655;1543
8656;1543
8657;1544
8658;1545
8659;1545
8660;1545
8661;1546
8662;1547
8663;1547
8664;1548
8665;1548
8666;1549
8667;1548
8668;1549
8669;1549
8670;1550
8671;1549
8672;1547
8673;1546
8674;1542
8675;1540
8676;1539
8677;1537
8678;1537
8679;1536
8680;1536
8681;1538
8682;1538
8683;1539
8684;1541
8685;1542
8686;1543
8687;1544
8688;1544
8689;1545
8690;1545
8691;1545
8692;1542
8693;1540
8694;1535
8695;1533
8696;1531
8697;1525
8698;1522
8699;1520
8700;1518
8701;1518
8702;1518
8703;1518
8704;1517
8705;1518
8706;1519
8707;1522
8708;1524
8709;1525
8710;1527
8711;1528
8712;1529
8713;1529
8714;1530
8715;1529
8716;1527
8717;1523
8718;1522
8719;1520
8720;1518
8721;1516
8722;1516
8723;1511
8724;1509
8725;1507
8726;1504
8727;1500
8728;1499
8729;1497
8730;1495
8731;1494
8732;1493
8733;1487
8734;1480
8735;1469
8736;1445
8737;1435
8738;1428
8739;1422
8740;1418
8741;1419
8742;1421
8743;1430
8744;1434
8745;1437
8746;1439
8747;1440
8748;1440
8749;1439
8750;1440
8751;1440
8752;1440
8753;1443
8754;1444
8755;1445
8756;1448
8757;1449
8758;1451
8759;1453
8760;1458
8761;1460
8762;1462
8763;1466
8764;1468
8765;1471
8766;1477
8767;1480
8768;1483
8769;1489
8770;1491
8771;1493
8772;1494
8773;1497
8774;1498
8775;1499
8776;1500
8777;1500
8778;1501
8779;1503
8780;1504
8781;1505
8782;1508
8783;1509
8784;1511
8785;1512
8786;1514
8787;1514
8788;1514
8789;1514
8790;1512
8791;1508
8792;1497
8793;1491
8794;1485
8795;1480
8796;1465
8797;1456
8798;1448
8799;1438
8800;1436
8801;1436
8802;1437
8803;1441
8804;1445
8805;1454
8806;1459
8807;1464
8808;1469
8809;1479
8810;1483
8811;1487
8812;1494
8813;1497
8814;1499
8815;1500
8816;1500
8817;1499
8818;1499
8819;1497
8820;1496
8821;1493
8822;1489
8823;1485
8824;1481
8825;1475
8826;1471
8827;1468
8828;1464
8829;1463
8830;1463
8831;1464
8832;1468
8833;1470
8834;1473
8835;1475
8836;1473
8837;1472
8838;1470
8839;1469
8840;1468
8841;1466
8842;1466
8843;1467
8844;1469
8845;1475
8846;1477
8847;1479
8848;1485
8849;1487
8850;1490
8851;1495
8852;1497
8853;1499
8854;1502
8855;1507
8856;1509
8857;1512
8858;1517
8859;1520
8860;1522
8861;1526
8862;1528
8863;1530
8864;1535
8865;1538
8866;1539
8867;1541
8868;1543
8869;1543
8870;1543
8871;1543
8872;1542
8873;1542
8874;1542
8875;1541
8876;1541
8877;1541
8878;1542
8879;1542
8880;1542
8881;1543
8882;1543
8883;1543
8884;1542
8885;1542
8886;1542
8887;1542
8888;1542
8889;1543
8890;1543
8891;1543
8892;1543
8893;1541
8894;1538
8895;1537
8896;1536
8897;1534
8898;1533
8899;1533
8900;1530
8901;1526
8902;1525
8903;1523
8904;1521
8905;1521
8906;1520
8907;1520
8908;1519
8909;1518
8910;1507
8911;1498
8912;1484
8913;1471
8914;1448
8915;1439
8916;1433
8917;1428
8918;1428
8919;1430
8920;1437
8921;1441
8922;1445
8923;1453
8924;1453
8925;1454
8926;1455
8927;1455
8928;1453
8929;1449
8930;1440
8931;1437
8932;1435
8933;1434
8934;1435
8935;1438
8936;1441
8937;1451
8938;1457
8939;1463
8940;1474
8941;1478
8942;1483
8943;1490
8944;1493
8945;1497
8946;1500
8947;1504
8948;1507
8949;1509
8950;1511
8951;1511
8952;1510
8953;1508
8954;1506
8955;1504
8956;1499
8957;1496
8958;1492
8959;1489
8960;1482
8961;1478
8962;1475
8963;1469
8964;1466
8965;1465
8966;1464
8967;1464
8968;1465
8969;1469
8970;1472
8971;1473
8972;1470
8973;1460
8974;1455
8975;1451
8976;1447
8977;1446
8978;1446
8979;1449
8980;1453
8981;1458
8982;1463
8983;1474
8984;1478
8985;1483
8986;1491
8987;1494
8988;1497
8989;1501
8990;1502
8991;1503
8992;1506
8993;1507
8994;1507
8995;1507
8996;1509
8997;1509
8998;1509
8999;1506
9000;1502
9001;1497
9002;1480
9003;1472
9004;1465
9005;1459
9006;1449
9007;1447
9008;1446
9009;1448
9010;1449
9011;1449
9012;1448
9013;1448
9014;1448
9015;1447
9016;1443
9017;1438
9018;1434
9019;1430
9020;1429
9021;1428
9022;1431
9023;1432
9024;1434
9025;1440
9026;1444
9027;1450
9028;1456
9029;1467
9030;1472
9031;1476
9032;1484
9033;1487
9034;1490
9035;1494
9036;1494
9037;1493
9038;1492
9039;1489
9040;1488
9041;1488
9042;1487
9043;1487
9044;1487
9045;1490
9046;1491
9047;1494
9048;1500
9049;1504
9050;1507
9051;1511
9052;1517
9053;1519
9054;1522
9055;1526
9056;1528
9057;1529
9058;1532
9059;1533
9060;1534
9061;1536
9062;1536
9063;1537
9064;1536
9065;1534
9066;1534
9067;1533
9068;1532
9069;1531
9070;1531
9071;1529
9072;1527
9073;1526
9074;1520
9075;1517
9076;1514
9077;1512
9078;1509
9079;1508
9080;1507
9081;1507
9082;1507
9083;1507
9084;1509
9085;1510
9086;1511
9087;1512
9088;1513
9089;1513
9090;1514
9091;1514
9092;1513
9093;1513
9094;1505
9095;1501
9096;1497
9097;1492
9098;1490
9099;1486
9100;1484
9101;1480
9102;1479
9103;1479
9104;1479
9105;1479
9106;1479
9107;1479
9108;1479
9109;1479
9110;1479
9111;1477
9112;1476
9113;1475
9114;1474
9115;1474
9116;1474
9117;1469
9118;1466
9119;1465
9120;1463
9121;1464
9122;1465
9123;1466
9124;1472
9125;1475
9126;1480
9127;1487
9128;1488
9129;1488
9130;1488
9131;1487
9132;1486
9133;1478
9134;1471
9135;1465
9136;1460
9137;1447
9138;1440
9139;1434
9140;1427
9141;1425
9142;1424
9143;1428
9144;1431
9145;1435
9146;1438
9147;1448
9148;1453
9149;1457
9150;1465
9151;1469
9152;1472
9153;1478
9154;1481
9155;1483
9156;1488
9157;1490
9158;1492
9159;1494
9160;1498
9161;1500
9162;1501
9163;1504
9164;1505
9165;1505
9166;1505
9167;1505
9168;1506
9169;1506
9170;1507
9171;1507
9172;1508
9173;1509
9174;1510
9175;1510
9176;1511
9177;1512
9178;1513
9179;1516
9180;1518
9181;1520
9182;1521
9183;1522
9184;1521
9185;1519
9186;1510
9187;1502
9188;1494
9189;1478
9190;1471
9191;1464
9192;1455
9193;1452
9194;1448
9195;1443
9196;1436
9197;1436
9198;1436
9199;1440
9200;1443
9201;1448
9202;1457
9203;1461
9204;1465
9205;1469
9206;1475
9207;1478
9208;1481
9209;1486
9210;1489
9211;1491
9212;1494
9213;1496
9214;1498
9215;1500
9216;1501
9217;1497
9218;1493
9219;1484
9220;1481
9221;1478
9222;1467
9223;1459
9224;1451
9225;1437
9226;1432
9227;1428
9228;1426
9229;1425
9230;1426
9231;1429
9232;1435
9233;1438
9234;1441
9235;1449
9236;1452
9237;1456
9238;1463
9239;1466
9240;1469
9241;1472
9242;1478
9243;1480
9244;1483
9245;1489
9246;1491
9247;1494
9248;1500
9249;1503
9250;1506
9251;1509
9252;1513
9253;1514
9254;1515
9255;1514
9256;1513
9257;1512
9258;1512
9259;1512
9260;1513
9261;1514
9262;1514
9263;1515
9264;1515
9265;1515
9266;1514
9267;1512
9268;1505
9269;1502
9270;1498
9271;1493
9272;1489
9273;1486
9274;1485
9275;1485
9276;1487
9277;1489
9278;1494
9279;1496
9280;1495
9281;1490
9282;1487
9283;1485
9284;1477
9285;1473
9286;1470
9287;1468
9288;1469
9289;1472
9290;1474
9291;1481
9292;1485
9293;1489
9294;1495
9295;1498
9296;1500
9297;1502
9298;1506
9299;1507
9300;1508
9301;1508
9302;1509
9303;1509
9304;1508
9305;1508
9306;1509
9307;1510
9308;1511
9309;1510
9310;1507
9311;1494
9312;1488
9313;1480
9314;1464
9315;1456
9316;1448
9317;1439
9318;1436
9319;1437
9320;1441
9321;1445
9322;1449
9323;1454
9324;1463
9325;1467
9326;1471
9327;1479
9328;1482
9329;1485
9330;1491
9331;1493
9332;1494
9333;1495
9334;1496
9335;1496
9336;1497
9337;1499
9338;1499
9339;1499
9340;1498
9341;1498
9342;1498
9343;1498
9344;1499
9345;1500
9346;1500
9347;1503
9348;1504
9349;1505
9350;1502
9351;1499
9352;1497
9353;1490
9354;1483
9355;1476
9356;1469
9357;1457
9358;1452
9359;1449
9360;1446
9361;1445
9362;1447
9363;1452
9364;1454
9365;1457
9366;1456
9367;1453
9368;1452
9369;1451
9370;1452
9371;1452
9372;1453
9373;1456
9374;1458
9375;1460
9376;1466
9377;1469
9378;1473
9379;1476
9380;1483
9381;1487
9382;1490
9383;1496
9384;1498
9385;1500
9386;1504
9387;1505
9388;1503
9389;1500
9390;1491
9391;1484
9392;1478
9393;1469
9394;1467
9395;1466
9396;1468
9397;1471
9398;1474
9399;1476
9400;1478
9401;1478
9402;1477
9403;1473
9404;1473
9405;1472
9406;1472
9407;1474
9408;1475
9409;1478
9410;1480
9411;1483
9412;1486
9413;1491
9414;1493
9415;1494
9416;1492
9417;1491
9418;1490
9419;1490
9420;1489
9421;1489
9422;1491
9423;1492
9424;1494
9425;1494
9426;1486
9427;1479
9428;1472
9429;1461
9430;1457
9431;1455
9432;1452
9433;1451
9434;1452
9435;1454
9436;1458
9437;1460
9438;1462
9439;1466
9440;1467
9441;1468
9442;1471
9443;1472
9444;1474
9445;1476
9446;1477
9447;1478
9448;1478
9449;1478
9450;1477
9451;1478
9452;1481
9453;1483
9454;1486
9455;1494
9456;1498
9457;1504
9458;1508
9459;1515
9460;1519
9461;1522
9462;1526
9463;1528
9464;1529
9465;1532
9466;1532
9467;1532
9468;1529
9469;1527
9470;1526
9471;1524
9472;1520
9473;1517
9474;1513
9475;1504
9476;1501
9477;1497
9478;1491
9479;1489
9480;1488
9481;1488
9482;1489
9483;1490
9484;1492
9485;1494
9486;1495
9487;1497
9488;1499
9489;1500
9490;1501
9491;1503
9492;1504
9493;1505
9494;1506
9495;1507
9496;1508
9497;1508
9498;1513
9499;1514
9500;1516
9501;1519
9502;1520
9503;1519
9504;1511
9505;1501
9506;1493
9507;1484
9508;1461
9509;1451
9510;1442
9511;1433
9512;1432
9513;1433
9514;1438
9515;1442
9516;1447
9517;1452
9518;1462
9519;1465
9520;1469
9521;1476
9522;1478
9523;1482
9524;1486
9525;1489
9526;1491
9527;1494
9528;1496
9529;1498
9530;1500
9531;1503
9532;1505
9533;1507
9534;1510
9535;1511
9536;1511
9537;1511
9538;1511
9539;1511
9540;1511
9541;1512
9542;1512
9543;1511
9544;1511
9545;1510
9546;1510
9547;1510
9548;1510
9549;1511
9550;1509
9551;1507
9552;1505
9553;1504
9554;1500
9555;1499
9556;1498
9557;1497
9558;1497
9559;1499
9560;1502
9561;1503
9562;1503
9563;1502
9564;1500
9565;1499
9566;1497
9567;1495
9568;1495
9569;1496
9570;1498
9571;1500
9572;1502
9573;1506
9574;1508
9575;1510
9576;1512
9577;1515
9578;1516
9579;1518
9580;1519
9581;1519
9582;1519
9583;1519
9584;1520
9585;1520
9586;1521
9587;1522
9588;1522
9589;1521
9590;1522
9591;1521
9592;1521
9593;1521
9594;1520
9595;1518
9596;1509
9597;1504
9598;1500
9599;1496
9600;1490
9601;1488
9602;1487
9603;1488
9604;1488
9605;1490
9606;1494
9607;1495
9608;1498
9609;1502
9610;1505
9611;1506
9612;1507
9613;1509
9614;1508
9615;1505
9616;1501
9617;1499
9618;1497
9619;1494
9620;1493
9621;1492
9622;1491
9623;1491
9624;1492
9625;1494
9626;1497
9627;1499
9628;1500
9629;1502
9630;1503
9631;1505
9632;1507
9633;1506
9634;1505
9635;1505
9636;1505
9637;1505
9638;1506
9639;1509
9640;1512
9641;1513
9642;1514
9643;1515
9644;1516
9645;1517
9646;1517
9647;1518
9648;1518
9649;1518
9650;1518
9651;1518
9652;1516
9653;1510
9654;1504
9655;1493
9656;1489
9657;1486
9658;1482
9659;1483
9660;1484
9661;1487
9662;1495
9663;1500
9664;1503
9665;1509
9666;1511
9667;1513
9668;1515
9669;1517
9670;1518
9671;1520
9672;1524
9673;1525
9674;1527
9675;1529
9676;1530
9677;1531
9678;1532
9679;1532
9680;1532
9681;1531
9682;1531
9683;1531
9684;1531
9685;1532
9686;1532
9687;1530
9688;1523
9689;1520
9690;1518
9691;1515
9692;1514
9693;1514
9694;1514
9695;1517
9696;1520
9697;1521
9698;1525
9699;1526
9700;1527
9701;1527
9702;1526
9703;1523
9704;1514
9705;1511
9706;1509
9707;1508
9708;1507
9709;1508
9710;1511
9711;1516
9712;1519
9713;1521
9714;1522
9715;1521
9716;1521
9717;1518
9718;1518
9719;1517
9720;1518
9721;1518
9722;1519
9723;1519
9724;1523
9725;1524
9726;1525
9727;1527
9728;1529
9729;1530
9730;1530
9731;1528
9732;1527
9733;1526
9734;1525
9735;1526
9736;1526
9737;1529
9738;1531
9739;1533
9740;1536
9741;1535
9742;1533
9743;1529
9744;1523
9745;1521
9746;1519
9747;1517
9748;1517
9749;1517
9750;1515
9751;1514
9752;1514
9753;1514
9754;1514
9755;1514
9756;1514
9757;1516
9758;1518
9759;1521
9760;1526
9761;1528
9762;1530
9763;1534
9764;1536
9765;1537
9766;1539
9767;1539
9768;1540
9769;1540
9770;1539
9771;1539
9772;1537
9773;1532
9774;1528
9775;1525
9776;1517
9777;1510
9778;1502
9779;1492
9780;1467
9781;1457
9782;1449
9783;1439
9784;1437
9785;1437
9786;1442
9787;1447
9788;1452
9789;1463
9790;1469
9791;1473
9792;1478
9793;1484
9794;1485
9795;1488
9796;1489
9797;1489
9798;1488
9799;1487
9800;1486
9801;1484
9802;1483
9803;1483
9804;1484
9805;1486
9806;1491
9807;1494
9808;1496
9809;1501
9810;1503
9811;1506
9812;1512
9813;1514
9814;1517
9815;1520
9816;1523
9817;1523
9818;1520
9819;1514
9820;1511
9821;1509
9822;1505
9823;1503
9824;1502
9825;1500
9826;1498
9827;1495
9828;1492
9829;1488
9830;1486
9831;1484
9832;1484
9833;1483
9834;1483
9835;1483
9836;1480
9837;1478
9838;1476
9839;1476
9840;1477
9841;1478
9842;1482
9843;1485
9844;1489
9845;1497
9846;1501
9847;1504
9848;1511
9849;1514
9850;1516
9851;1517
9852;1521
9853;1523
9854;1525
9855;1530
9856;1532
9857;1534
9858;1537
9859;1539
9860;1540
9861;1542
9862;1542
9863;1542
9864;1540
9865;1539
9866;1538
9867;1536
9868;1530
9869;1526
9870;1522
9871;1514
9872;1512
9873;1510
9874;1508
9875;1506
9876;1506
9877;1506
9878;1508
9879;1509
9880;1510
9881;1512
9882;1513
9883;1514
9884;1514
9885;1512
9886;1508
9887;1504
9888;1497
9889;1494
9890;1494
9891;1492
9892;1492
9893;1492
9894;1493
9895;1493
9896;1494
9897;1496
9898;1496
9899;1496
9900;1495
9901;1495
9902;1495
9903;1496
9904;1499
9905;1501
9906;1503
9907;1506
9908;1507
9909;1509
9910;1511
9911;1511
9912;1511
9913;1511
9914;1512
9915;1512
9916;1513
9917;1515
9918;1516
9919;1518
9920;1522
9921;1523
9922;1524
9923;1525
9924;1525
9925;1523
9926;1519
9927;1512
9928;1510
9929;1507
9930;1505
9931;1505
9932;1505
9933;1506
9934;1506
9935;1506
9936;1506
9937;1507
9938;1507
9939;1507
9940;1508
9941;1508
9942;1509
9943;1510
9944;1510
9945;1511
9946;1512
9947;1514
9948;1516
9949;1517
9950;1519
9951;1518
9952;1518
9953;1518
9954;1519
9955;1518
9956;1516
9957;1514
9958;1512
9959;1512
9960;1511
9961;1511
9962;1512
9963;1515
9964;1517
9965;1519
9966;1523
9967;1524
9968;1525
9969;1523
9970;1520
9971;1518
9972;1516
9973;1512
9974;1510
9975;1509
9976;1507
9977;1507
9978;1507
9979;1505
9980;1505
9981;1505
9982;1504
9983;1504
9984;1503
9985;1500
9986;1495
9987;1491
9988;1486
9989;1478
9990;1476
9991;1475
9992;1476
9993;1478
9994;1480
9995;1483
9996;1486
9997;1487
9998;1488
9999;1490
10000;1492
10001;1493
10002;1496
10003;1498
10004;1500
10005;1503
10006;1508
10007;1509
10008;1511
10009;1513
10010;1514
10011;1513
10012;1507
10013;1503
10014;1500
10015;1491
10016;1487
10017;1482
10018;1474
10019;1462
10020;1458
10021;1455
10022;1453
10023;1454
10024;1456
10025;1462
10026;1466
10027;1471
10028;1474
10029;1481
10030;1482
10031;1483
10032;1480
10033;1473
10034;1464
10035;1450
10036;1445
10037;1440
10038;1435
10039;1434
10040;1436
10041;1439
10042;1449
10043;1454
10044;1459
10045;1471
10046;1477
10047;1481
10048;1489
10049;1491
10050;1494
10051;1497
10052;1496
10053;1495
10054;1493
10055;1490
10056;1487
10057;1484
10058;1478
10059;1475
10060;1474
10061;1473
10062;1474
10063;1475
10064;1476
10065;1480
10066;1481
10067;1483
10068;1484
10069;1484
10070;1484
10071;1484
10072;1484
10073;1485
10074;1486
10075;1490
10076;1492
10077;1495
10078;1501
10079;1502
10080;1502
10081;1500
10082;1498
10083;1496
10084;1492
10085;1492
10086;1493
10087;1492
10088;1489
10089;1487
10090;1486
10091;1484
10092;1482
10093;1480
10094;1472
10095;1468
10096;1465
10097;1462
10098;1460
10099;1460
10100;1460
10101;1465
10102;1467
10103;1470
10104;1475
10105;1478
10106;1480
10107;1486
10108;1489
10109;1490
10110;1493
10111;1493
10112;1493
10113;1493
10114;1494
10115;1495
10116;1497
10117;1502
10118;1505
10119;1508
10120;1511
10121;1515
10122;1516
10123;1517
10124;1516
10125;1515
10126;1513
10127;1508
10128;1505
10129;1502
10130;1498
10131;1497
10132;1495
10133;1494
10134;1494
10135;1494
10136;1496
10137;1497
10138;1498
10139;1498
10140;1498
10141;1498
10142;1498
10143;1498
10144;1499
10145;1499
10146;1500
10147;1500
10148;1501
10149;1502
10150;1504
10151;1505
10152;1506
10153;1507
10154;1506
10155;1501
10156;1496
10157;1487
10158;1483
10159;1479
10160;1475
10161;1474
10162;1472
10163;1467
10164;1463
10165;1457
10166;1445
10167;1423
10168;1416
10169;1411
10170;1406
10171;1406
10172;1409
10173;1419
10174;1426
10175;1433
10176;1447
10177;1454
10178;1460
10179;1466
10180;1475
10181;1479
10182;1482
10183;1490
10184;1494
10185;1497
10186;1503
10187;1506
10188;1508
10189;1510
10190;1513
10191;1514
10192;1514
10193;1513
10194;1512
10195;1510
10196;1500
10197;1494
10198;1488
10199;1477
10200;1471
10201;1467
10202;1463
10203;1456
10204;1455
10205;1454
10206;1457
10207;1459
10208;1462
10209;1469
10210;1473
10211;1478
10212;1484
10213;1487
10214;1488
10215;1489
10216;1489
10217;1490
10218;1491
10219;1493
10220;1494
10221;1495
10222;1499
10223;1503
10224;1505
10225;1507
10226;1511
10227;1513
10228;1515
10229;1518
10230;1518
10231;1518
10232;1515
10233;1510
10234;1502
10235;1476
10236;1463
10237;1450
10238;1438
10239;1423
10240;1419
10241;1417
10242;1420
10243;1424
10244;1429
10245;1438
10246;1443
10247;1447
10248;1454
10249;1457
10250;1459
10251;1461
10252;1464
10253;1466
10254;1466
10255;1466
10256;1466
10257;1466
10258;1468
10259;1470
10260;1472
10261;1474
10262;1480
10263;1483
10264;1486
10265;1493
10266;1496
10267;1495
10268;1485
10269;1476
10270;1467
10271;1456
10272;1435
10273;1426
10274;1417
10275;1407
10276;1406
10277;1408
10278;1416
10279;1421
10280;1426
10281;1436
10282;1440
10283;1445
10284;1450
10285;1458
10286;1461
10287;1464
10288;1469
10289;1471
10290;1473
10291;1477
10292;1480
10293;1483
10294;1489
10295;1492
10296;1496
10297;1498
10298;1504
10299;1507
10300;1509
10301;1514
10302;1515
10303;1517
10304;1520
10305;1521
10306;1522
10307;1523
10308;1522
10309;1521
10310;1520
10311;1515
10312;1513
10313;1510
10314;1503
10315;1496
10316;1489
10317;1473
10318;1466
10319;1460
10320;1455
10321;1448
10322;1447
10323;1446
10324;1448
10325;1449
10326;1450
10327;1454
10328;1456
10329;1457
10330;1458
10331;1461
10332;1463
10333;1466
10334;1472
10335;1475
10336;1478
10337;1484
10338;1487
10339;1489
10340;1494
10341;1496
10342;1497
10343;1498
10344;1501
10345;1502
10346;1503
10347;1508
10348;1510
10349;1512
10350;1515
10351;1516
10352;1517
10353;1517
10354;1517
10355;1518
10356;1518
10357;1517
10358;1515
10359;1513
10360;1508
10361;1502
10362;1497
10363;1489
10364;1482
10365;1474
10366;1464
10367;1438
10368;1422
10369;1407
10370;1381
10371;1372
10372;1367
10373;1365
10374;1367
10375;1371
10376;1376
10377;1389
10378;1397
10379;1404
10380;1418
10381;1424
10382;1430
10383;1440
10384;1445
10385;1449
10386;1456
10387;1459
10388;1461
10389;1464
10390;1470
10391;1473
10392;1477
10393;1483
10394;1486
10395;1489
10396;1494
10397;1495
10398;1496
10399;1497
10400;1492
10401;1489
10402;1483
10403;1471
10404;1463
10405;1457
10406;1448
10407;1444
10408;1442
10409;1442
10410;1443
10411;1446
10412;1449
10413;1457
10414;1461
10415;1466
10416;1474
10417;1477
10418;1481
10419;1487
10420;1490
10421;1492
10422;1493
10423;1497
10424;1499
10425;1502
10426;1506
10427;1507
10428;1507
10429;1508
10430;1508
10431;1507
10432;1503
10433;1500
10434;1497
10435;1493
10436;1483
10437;1478
10438;1475
10439;1472
10440;1471
10441;1468
10442;1459
10443;1454
10444;1451
10445;1448
10446;1443
10447;1442
10448;1442
10449;1446
10450;1451
10451;1455
10452;1466
10453;1472
10454;1478
10455;1484
10456;1494
10457;1497
10458;1496
10459;1492
10460;1490
10461;1487
10462;1482
10463;1481
10464;1479
10465;1476
10466;1474
10467;1471
10468;1469
10469;1465
10470;1465
10471;1465
10472;1469
10473;1473
10474;1477
10475;1485
10476;1489
10477;1493
10478;1500
10479;1503
10480;1506
10481;1509
10482;1513
10483;1513
10484;1513
10485;1512
10486;1511
10487;1508
10488;1500
10489;1494
10490;1487
10491;1478
10492;1461
10493;1453
10494;1447
10495;1438
10496;1434
10497;1430
10498;1423
10499;1423
10500;1423
10501;1427
10502;1429
10503;1431
10504;1433
10505;1438
10506;1441
10507;1444
10508;1451
10509;1454
10510;1459
10511;1467
10512;1471
10513;1476
10514;1479
10515;1486
10516;1489
10517;1491
10518;1494
10519;1494
10520;1493
10521;1489
10522;1488
10523;1486
10524;1483
10525;1481
10526;1480
10527;1479
10528;1478
10529;1478
10530;1476
10531;1473
10532;1471
10533;1470
10534;1470
10535;1471
10536;1469
10537;1465
10538;1462
10539;1461
10540;1462
10541;1464
10542;1466
10543;1467
10544;1467
10545;1463
10546;1459
10547;1447
10548;1442
10549;1438
10550;1435
10551;1434
10552;1436
10553;1440
10554;1451
10555;1457
10556;1463
10557;1475
10558;1479
10559;1484
10560;1488
10561;1496
10562;1499
10563;1502
10564;1507
10565;1508
10566;1510
10567;1511
10568;1511
10569;1508
10570;1497
10571;1490
10572;1481
10573;1474
10574;1463
10575;1460
10576;1457
10577;1458
10578;1460
10579;1464
10580;1473
10581;1477
10582;1482
10583;1490
10584;1492
10585;1492
10586;1491
10587;1487
10588;1484
10589;1481
10590;1478
10591;1477
10592;1478
10593;1480
10594;1481
10595;1482
10596;1480
10597;1465
10598;1456
10599;1444
10600;1426
10601;1419
10602;1415
10603;1414
10604;1417
10605;1422
10606;1435
10607;1442
10608;1448
10609;1453
10610;1454
10611;1453
10612;1449
10613;1443
10614;1441
10615;1441
10616;1444
10617;1447
10618;1451
10619;1455
10620;1463
10621;1468
10622;1473
10623;1483
10624;1487
10625;1490
10626;1496
10627;1498
10628;1500
10629;1504
10630;1506
10631;1508
10632;1509
10633;1509
10634;1507
10635;1503
10636;1481
10637;1469
10638;1455
10639;1433
10640;1425
10641;1419
10642;1418
10643;1421
10644;1425
10645;1431
10646;1446
10647;1453
10648;1458
10649;1465
10650;1468
10651;1470
10652;1475
10653;1477
10654;1479
10655;1481
10656;1485
10657;1487
10658;1488
10659;1489
10660;1488
10661;1486
10662;1481
10663;1481
10664;1481
10665;1482
10666;1487
10667;1491
10668;1494
10669;1496
10670;1496
10671;1492
10672;1476
10673;1468
10674;1463
10675;1455
10676;1454
10677;1454
10678;1456
10679;1466
10680;1470
10681;1475
10682;1481
10683;1480
10684;1481
10685;1483
10686;1485
10687;1487
10688;1489
10689;1494
10690;1496
10691;1498
10692;1499
10693;1499
10694;1498
10695;1496
10696;1496
10697;1496
10698;1497
10699;1498
10700;1500
10701;1501
10702;1504
10703;1505
10704;1505
10705;1499
10706;1488
10707;1476
10708;1450
10709;1437
10710;1426
10711;1417
10712;1412
10713;1414
10714;1419
10715;1431
10716;1438
10717;1446
10718;1458
10719;1463
10720;1469
10721;1478
10722;1482
10723;1486
10724;1490
10725;1496
10726;1500
10727;1504
10728;1512
10729;1515
10730;1519
10731;1524
10732;1526
10733;1526
10734;1521
10735;1516
10736;1510
10737;1503
10738;1492
10739;1489
10740;1487
10741;1488
10742;1489
10743;1491
10744;1488
10745;1485
10746;1479
10747;1471
10748;1457
10749;1451
10750;1448
10751;1445
10752;1446
10753;1448
10754;1457
10755;1461
10756;1466
10757;1477
10758;1482
10759;1484
10760;1487
10761;1490
10762;1489
10763;1487
10764;1486
10765;1485
10766;1485
10767;1488
10768;1490
10769;1493
10770;1495
10771;1495
10772;1494
10773;1493
10774;1492
10775;1493
10776;1493
10777;1496
10778;1496
10779;1495
10780;1495
10781;1495
10782;1497
10783;1499
10784;1506
10785;1509
10786;1513
10787;1520
10788;1523
10789;1524
10790;1522
10791;1512
10792;1498
10793;1478
10794;1444
10795;1428
10796;1416
10797;1404
10798;1405
10799;1408
10800;1416
10801;1421
10802;1425
10803;1435
10804;1440
10805;1444
10806;1447
10807;1452
10808;1454
10809;1455
10810;1456
10811;1455
10812;1455
10813;1455
10814;1457
10815;1460
10816;1464
10817;1474
10818;1479
10819;1485
10820;1496
10821;1501
10822;1504
10823;1509
10824;1513
10825;1516
10826;1524
10827;1526
10828;1529
10829;1530
10830;1529
10831;1526
10832;1521
10833;1510
10834;1504
10835;1501
10836;1496
10837;1496
10838;1497
10839;1503
10840;1507
10841;1512
10842;1516
10843;1525
10844;1528
10845;1529
10846;1524
10847;1519
10848;1509
10849;1491
10850;1483
10851;1477
10852;1472
10853;1463
10854;1456
10855;1445
10856;1429
10857;1420
10858;1412
10859;1403
10860;1402
10861;1405
10862;1409
10863;1425
10864;1434
10865;1443
10866;1460
10867;1468
10868;1475
10869;1489
10870;1495
10871;1501
10872;1512
10873;1515
10874;1519
10875;1523
10876;1526
10877;1527
10878;1529
10879;1532
10880;1533
10881;1535
10882;1542
10883;1546
10884;1550
10885;1556
10886;1559
10887;1561
10888;1563
10889;1561
10890;1557
10891;1551
10892;1537
10893;1530
10894;1524
10895;1514
10896;1511
10897;1510
10898;1509
10899;1509
10900;1511
10901;1512
10902;1518
10903;1519
10904;1520
10905;1519
10906;1518
10907;1517
10908;1517
10909;1518
10910;1519
10911;1521
10912;1520
10913;1516
10914;1509
10915;1493
10916;1486
10917;1479
10918;1453
10919;1438
10920;1424
10921;1413
10922;1394
10923;1385
